955,954,954.1,956,958,955.1,955.2,953,954.2,956.1,958.1,956.2,956.3,956.4,958.2,957,958.3,957.1,955.3,955.4,956.5,958.4,961,965,964,965.1,967,969,971,971.1,971.2,973,974,976,979,981,976.1,975,976.2,975.1,977,975.2,974.1,969.1,969.2,971.3,974.2,979.1,980,978,971.4,970,968,967.1,963,960,956.6,958.5,957.2,957.3,953.1,950,952,955.5,954.3,953.2,951,949,948,950.1,951.1,951.2,948.1,947,948.2,949.1,953.3,950.2,946,943,942,937,931,926,920,913,910,919,943.1,974.3,1006,1048,1106,1162,1201,1216,1194,1128,1034,960.1,924,923,935,941,945,946.1,945.1,946.2,945.2,943.2,945.3,943.3,946.3,945.4,945.5,942.1,943.4,944,944.1,941.1,943.5,940,941.2,943.6,943.7,940.1,940.2,937.1,940.3,942.2,942.3,943.8,939,938,940.4,941.3,942.4,942.5,939.1,940.5,944.2,945.6,944.3,944.4,945.7,941.4,943.9,946.4,944.5,944.6,941.5,939.2,939.3,941.6,941.7,942.6,939.4,939.5,940.6,941.8,944.7,944.8,942.7,939.6,942.8,943.1.1,945.8,944.9,944.1.1,943.11,947.1,944.11,946.5,946.6,944.12,941.9,943.12,943.13,942.9,941.1.1,940.7,940.8,939.7,941.11,941.12,942.1.1,937.2,938.1,0,Unnamed: 189
952,953,953,953,949,947,953,952,953,952,952,950,952,955,953,955,955,955,956,962,963,963,962,963,966,967,969,968,968,969,971,973,975,972,971,969,968,971,970,969,968,969,968,969,971,973,976,972,968,962,962,955,952,948,947,948,950,949,947,946,945,947,947,947,945,943,944,949,949,946,945,941,943,944,946,943,939,932,929,923,922,919,916,904,895,898,909,925,947,970,1001,1042,1098,1151,1186.0,1196.0,1178.0,1119.0,1037.0,963.0,924.0,920.0,929.0,942.0,946.0,946.0,944.0,942.0,943.0,947.0,946.0,945.0,943.0,942.0,943.0,944.0,946.0,945.0,942.0,941.0,942.0,945.0,943.0,942.0,943.0,943.0,942.0,946.0,947.0,946.0,945.0,944.0,944.0,944.0,945.0,945.0,943.0,943.0,944.0,945.0,947.0,949.0,947.0,945.0,946.0,947.0,949.0,947.0,945.0,945.0,947.0,949.0,949.0,947.0,945.0,946.0,946.0,951.0,949.0,947.0,945.0,948.0,947.0,949.0,948.0,946.0,948.0,949.0,949.0,949.0,949.0,948.0,946.0,946.0,951.0,950.0,949.0,947.0,946.0,946.0,949.0,951.0,947.0,948.0,946.0,949.0,949.0,951.0,0.0,
955,948,952,952,955,955,954,953,955,958,958,957,957,956,958,960,966,966,964,963,967,968,969,968,969,970,971,974,978,975,976,973,973,975,977,973,971,972,973,970,971,968,973,974,975,971,968,964,961,959,957,955,958,957,955,952,954,956,957,955,952,951,949,950,951,951,948,949,949,951,950,952,950,948,951,952,954,953,950,947,945,938,935,927,921,911,913,929,953,980,1013,1061,1119,1165,1188.0,1180.0,1131.0,1053.0,984.0,940.0,924.0,928.0,934.0,942.0,944.0,946.0,946.0,944.0,943.0,939.0,939.0,943.0,945.0,943.0,943.0,941.0,943.0,947.0,946.0,945.0,945.0,945.0,945.0,947.0,946.0,946.0,944.0,939.0,942.0,944.0,945.0,944.0,943.0,939.0,941.0,943.0,943.0,943.0,942.0,941.0,943.0,940.0,943.0,942.0,942.0,940.0,941.0,943.0,945.0,945.0,945.0,944.0,945.0,945.0,943.0,943.0,940.0,937.0,941.0,943.0,945.0,946.0,941.0,943.0,943.0,944.0,945.0,945.0,943.0,940.0,941.0,944.0,945.0,944.0,943.0,939.0,939.0,939.0,940.0,939.0,934.0,935.0,934.0,937.0,935.0,930.0,933.0,932.0,0.0,
957,958,958,958,956,956,956,959,959,959,955,954,956,958,960,962,963,963,969,970,973,972,971,972,974,977,977,980,977,977,980,978,979,977,975,973,976,978,978,974,973,974,978,983,985,982,978,970,970,967,967,962,958,956,956,955,954,954,956,953,955,956,956,955,953,950,953,950,955,956,952,948,952,955,954,954,953,948,946,945,939,933,929,922,915,916,925,943,965,992,1032,1087,1143,1184,1201.0,1183.0,1128.0,1050.0,981.0,939.0,924.0,926.0,934.0,944.0,946.0,945.0,945.0,944.0,946.0,948.0,947.0,947.0,944.0,942.0,942.0,946.0,946.0,943.0,943.0,941.0,942.0,945.0,945.0,944.0,941.0,941.0,941.0,944.0,946.0,946.0,942.0,941.0,943.0,945.0,945.0,945.0,943.0,942.0,942.0,944.0,946.0,945.0,942.0,939.0,941.0,943.0,942.0,943.0,941.0,939.0,939.0,942.0,945.0,946.0,944.0,942.0,942.0,944.0,946.0,942.0,940.0,940.0,941.0,941.0,943.0,940.0,941.0,939.0,942.0,944.0,943.0,944.0,944.0,942.0,944.0,945.0,945.0,943.0,942.0,939.0,939.0,942.0,942.0,940.0,938.0,935.0,936.0,937.0,0.0,
958,958,960,960,958,958,959,961,961,961,958,958,960,961,963,963,965,961,964,969,973,973,972,971,973,977,978,979,980,980,981,984,983,983,979,977,976,978,981,976,976,974,977,982,984,980,973,969,967,964,963,960,958,959,960,958,958,957,956,955,956,957,960,959,957,955,955,955,957,956,955,953,956,956,956,956,955,953,951,950,943,935,928,925,920,917,923,941,968,997,1037,1084,1140,1186,1213.0,1208.0,1179.0,1113.0,1028.0,965.0,935.0,930.0,939.0,948.0,952.0,952.0,950.0,948.0,948.0,949.0,950.0,951.0,950.0,947.0,947.0,949.0,950.0,950.0,947.0,945.0,947.0,947.0,946.0,947.0,945.0,942.0,944.0,945.0,948.0,945.0,945.0,944.0,944.0,945.0,946.0,946.0,945.0,943.0,946.0,947.0,949.0,949.0,948.0,946.0,947.0,950.0,950.0,950.0,949.0,947.0,950.0,946.0,949.0,950.0,948.0,946.0,946.0,947.0,949.0,949.0,947.0,945.0,946.0,947.0,949.0,948.0,947.0,946.0,948.0,948.0,950.0,950.0,951.0,946.0,951.0,951.0,952.0,949.0,948.0,944.0,946.0,949.0,949.0,950.0,947.0,946.0,946.0,946.0,0.0,
952,954,956,955,955,953,952,952,951,955,953,954,952,953,952,955,957,958,958,962,963,964,963,965,963,967,969,971,973,973,972,971,973,973,972,968,966,968,970,973,969,966,960,964,965,970,971,970,967,964,962,961,960,954,950,951,951,951,950,950,950,948,952,949,949,944,940,943,944,947,948,944,941,943,945,945,945,942,938,936,933,926,927,920,910,909,919,940,963,986,1020,1068,1121,1167,1193.0,1201.0,1182.0,1136.0,1069.0,1010.0,967.0,939.0,924.0,914.0,917.0,924.0,931.0,934.0,934.0,937.0,940.0,942.0,942.0,941.0,940.0,939.0,940.0,938.0,938.0,936.0,934.0,934.0,938.0,938.0,938.0,935.0,935.0,936.0,939.0,938.0,938.0,939.0,935.0,935.0,938.0,937.0,937.0,935.0,935.0,937.0,938.0,939.0,938.0,938.0,936.0,940.0,938.0,939.0,938.0,936.0,936.0,938.0,938.0,941.0,939.0,938.0,933.0,935.0,935.0,938.0,938.0,936.0,936.0,937.0,938.0,941.0,941.0,939.0,939.0,940.0,943.0,943.0,941.0,941.0,939.0,938.0,943.0,943.0,943.0,943.0,938.0,941.0,942.0,941.0,938.0,935.0,931.0,932.0,0.0,
954,952,952,954,953,956,955,953,953,953,956,956,955,951,950,954,958,960,961,965,963,965,964,967,969,972,969,971,972,974,975,973,971,972,972,974,972,968,968,969,967,968,973,975,975,972,967,966,964,960,957,953,954,953,953,949,947,948,952,954,952,951,950,950,951,952,951,950,947,947,951,952,948,947,945,945,947,948,945,939,931,924,921,918,912,907,918,942,973,1003,1045,1095,1144,1186,1202.0,1190.0,1140.0,1061.0,983.0,934.0,919.0,925.0,931.0,937.0,941.0,941.0,941.0,944.0,945.0,943.0,939.0,937.0,941.0,941.0,941.0,941.0,938.0,940.0,942.0,943.0,940.0,942.0,940.0,944.0,945.0,947.0,944.0,944.0,944.0,944.0,945.0,944.0,944.0,944.0,942.0,945.0,942.0,944.0,945.0,943.0,942.0,941.0,943.0,944.0,945.0,943.0,941.0,943.0,941.0,942.0,943.0,943.0,942.0,943.0,944.0,945.0,943.0,943.0,944.0,945.0,946.0,945.0,946.0,945.0,940.0,941.0,943.0,944.0,944.0,941.0,940.0,942.0,945.0,944.0,943.0,941.0,937.0,941.0,941.0,944.0,943.0,940.0,938.0,939.0,942.0,942.0,943.0,941.0,0.0,
960,961,960,957,957,960,959,961,960,960,955,957,960,962,960,960,956,958,960,962,962,962,965,968,973,974,974,973,972,976,980,978,978,981,980,979,978,978,977,975,973,976,977,975,977,978,980,985,980,975,972,970,966,964,963,963,960,958,954,954,957,957,957,956,954,954,955,957,955,953,950,954,955,957,957,957,953,953,955,953,945,934,928,923,919,915,924,945,973,1010,1053,1109,1161,1199,1209.0,1183.0,1118.0,1028.0,959.0,930.0,927.0,942.0,951.0,953.0,951.0,948.0,947.0,948.0,950.0,950.0,949.0,947.0,945.0,947.0,948.0,947.0,949.0,946.0,943.0,943.0,946.0,947.0,947.0,946.0,942.0,944.0,946.0,947.0,947.0,945.0,946.0,945.0,948.0,949.0,948.0,947.0,944.0,947.0,948.0,949.0,948.0,945.0,945.0,947.0,949.0,950.0,951.0,947.0,945.0,947.0,947.0,950.0,949.0,950.0,949.0,949.0,950.0,953.0,951.0,948.0,949.0,950.0,948.0,951.0,950.0,949.0,946.0,948.0,949.0,948.0,950.0,949.0,948.0,947.0,947.0,950.0,949.0,949.0,948.0,948.0,948.0,948.0,949.0,946.0,945.0,947.0,947.0,949.0,0.0,
960,960,960,962,963,966,967,966,963,962,964,964,962,961,961,962,965,964,965,961,962,966,971,976,973,976,974,979,979,981,982,984,985,985,988,989,988,983,981,982,982,982,982,981,979,982,988,990,987,976,973,973,970,969,967,964,964,961,963,964,965,964,961,962,962,964,964,963,961,959,960,960,960,959,956,957,959,961,960,955,950,945,939,935,931,922,918,927,950,977,1006,1045,1099,1155,1188.0,1197.0,1171.0,1114.0,1036.0,970.0,938.0,932.0,941.0,947.0,951.0,953.0,953.0,955.0,954.0,954.0,952.0,955.0,956.0,956.0,957.0,957.0,953.0,955.0,956.0,957.0,956.0,954.0,951.0,952.0,951.0,954.0,955.0,951.0,952.0,954.0,953.0,954.0,953.0,954.0,952.0,957.0,957.0,958.0,956.0,954.0,954.0,955.0,957.0,955.0,953.0,953.0,950.0,953.0,954.0,955.0,951.0,951.0,950.0,951.0,953.0,955.0,955.0,955.0,956.0,957.0,959.0,957.0,955.0,954.0,954.0,953.0,953.0,952.0,954.0,952.0,951.0,955.0,955.0,958.0,954.0,955.0,953.0,954.0,956.0,957.0,954.0,951.0,948.0,947.0,953.0,952.0,953.0,950.0,0.0,
961,964,962,961,963,962,960,962,964,965,964,961,959,959,963,962,966,961,959,960,966,968,972,972,971,972,974,978,980,980,977,980,983,983,982,982,978,976,978,979,977,974,971,972,975,981,981,975,968,969,969,965,962,959,956,956,959,961,962,961,958,958,959,959,957,955,954,954,954,955,954,951,952,954,953,955,955,954,951,948,943,939,936,930,920,916,926,946,972,1001,1041,1096,1147,1180,1191.0,1168.0,1106.0,1030.0,973.0,941.0,930.0,931.0,937.0,945.0,949.0,950.0,949.0,949.0,946.0,944.0,948.0,947.0,947.0,947.0,947.0,950.0,950.0,952.0,948.0,948.0,947.0,950.0,950.0,951.0,949.0,947.0,946.0,946.0,947.0,947.0,945.0,946.0,944.0,943.0,946.0,945.0,946.0,943.0,943.0,944.0,949.0,948.0,946.0,945.0,945.0,946.0,946.0,947.0,943.0,944.0,943.0,945.0,946.0,945.0,946.0,944.0,943.0,943.0,946.0,946.0,945.0,944.0,944.0,945.0,948.0,950.0,948.0,947.0,945.0,946.0,948.0,948.0,947.0,946.0,946.0,944.0,944.0,943.0,941.0,940.0,938.0,938.0,939.0,940.0,938.0,935.0,931.0,933.0,0.0,
962,963,962,961,960,961,962,965,965,963,962,964,968,969,971,969,969,972,976,976,977,976,977,979,981,983,983,982,981,980,980,981,980,980,978,978,976,982,980,978,973,977,982,986,983,979,972,969,968,967,963,960,961,957,959,957,960,959,960,959,959,962,963,960,960,958,960,960,958,958,952,953,958,959,959,957,954,956,955,953,947,939,934,930,927,922,921,933,959,991,1026,1074,1127,1172,1201.0,1211.0,1191.0,1129.0,1048.0,978.0,939.0,933.0,940.0,948.0,952.0,951.0,949.0,948.0,953.0,953.0,950.0,949.0,947.0,948.0,951.0,950.0,950.0,951.0,948.0,950.0,949.0,951.0,950.0,948.0,949.0,951.0,952.0,952.0,953.0,953.0,950.0,951.0,953.0,954.0,954.0,954.0,952.0,952.0,952.0,954.0,953.0,951.0,950.0,952.0,954.0,953.0,954.0,953.0,950.0,949.0,952.0,954.0,955.0,954.0,950.0,950.0,953.0,954.0,955.0,952.0,950.0,951.0,952.0,954.0,953.0,951.0,951.0,950.0,951.0,954.0,954.0,952.0,952.0,953.0,955.0,954.0,955.0,953.0,950.0,951.0,953.0,952.0,951.0,951.0,948.0,947.0,949.0,950.0,0.0,
965,965,962,965,965,967,965,965,962,964,967,968,969,968,971,975,978,976,976,976,975,980,980,981,984,984,982,983,985,983,982,981,979,979,984,984,982,979,980,985,988,989,983,975,971,969,968,967,964,962,959,960,959,962,959,958,956,957,958,959,960,956,955,956,958,957,958,956,956,957,957,958,957,955,949,945,938,936,934,934,929,928,922,914,909,915,926,949,974,1000,1036,1081,1129,1172,1196.0,1202.0,1170.0,1109.0,1027.0,967.0,937.0,934.0,937.0,947.0,948.0,950.0,950.0,950.0,952.0,952.0,950.0,947.0,951.0,952.0,951.0,951.0,949.0,947.0,952.0,951.0,953.0,949.0,948.0,949.0,953.0,953.0,952.0,951.0,948.0,950.0,953.0,954.0,953.0,951.0,948.0,951.0,953.0,953.0,951.0,947.0,946.0,949.0,953.0,951.0,952.0,953.0,951.0,951.0,953.0,955.0,955.0,951.0,952.0,949.0,953.0,952.0,951.0,951.0,950.0,952.0,953.0,952.0,951.0,947.0,948.0,951.0,953.0,957.0,952.0,952.0,947.0,948.0,949.0,952.0,952.0,951.0,949.0,951.0,953.0,952.0,954.0,952.0,950.0,950.0,951.0,950.0,948.0,946.0,0.0,
955,956,958,960,961,957,957,958,962,962,961,958,960,961,964,967,968,971,972,971,972,973,972,974,973,976,978,983,982,979,977,979,979,978,979,976,976,978,977,974,974,973,977,980,983,981,976,971,968,968,970,970,966,960,957,956,958,958,957,954,952,954,954,955,954,953,951,952,953,954,956,952,950,950,953,955,954,950,947,942,936,932,926,916,911,914,927,951,973,999,1042,1096,1144,1174,1183.0,1164.0,1112.0,1043.0,987.0,950.0,930.0,926.0,930.0,936.0,939.0,942.0,942.0,942.0,940.0,944.0,945.0,943.0,942.0,943.0,940.0,945.0,945.0,946.0,945.0,945.0,942.0,944.0,944.0,942.0,944.0,943.0,942.0,942.0,944.0,946.0,946.0,944.0,944.0,945.0,946.0,947.0,946.0,942.0,942.0,942.0,941.0,942.0,943.0,940.0,940.0,940.0,941.0,942.0,941.0,939.0,939.0,940.0,939.0,940.0,942.0,942.0,941.0,942.0,942.0,944.0,943.0,943.0,939.0,940.0,942.0,944.0,943.0,941.0,940.0,942.0,942.0,944.0,942.0,941.0,940.0,942.0,944.0,946.0,944.0,941.0,940.0,941.0,941.0,944.0,941.0,938.0,934.0,936.0,0.0,
956,955,954,952,954,957,955,954,954,953,956,957,958,956,953,953,958,961,961,961,960,964,964,968,971,968,967,971,977,978,978,975,973,974,975,974,973,971,970,966,968,969,972,973,972,969,965,964,963,957,953,954,954,954,953,950,950,952,951,953,951,949,947,948,949,953,950,947,946,946,950,952,950,948,947,948,949,950,948,943,935,931,928,927,919,913,917,934,959,987,1019,1061,1110,1156,1187.0,1194.0,1174.0,1121.0,1046.0,982.0,946.0,932.0,927.0,930.0,934.0,939.0,941.0,943.0,941.0,941.0,940.0,944.0,945.0,947.0,945.0,944.0,940.0,942.0,944.0,944.0,943.0,943.0,937.0,940.0,942.0,943.0,941.0,938.0,936.0,937.0,941.0,940.0,938.0,941.0,938.0,939.0,940.0,940.0,941.0,939.0,939.0,940.0,942.0,942.0,942.0,940.0,938.0,940.0,941.0,945.0,943.0,941.0,938.0,940.0,940.0,941.0,940.0,939.0,936.0,938.0,939.0,941.0,940.0,939.0,936.0,938.0,938.0,939.0,940.0,941.0,939.0,938.0,939.0,941.0,943.0,943.0,939.0,941.0,940.0,940.0,940.0,937.0,937.0,936.0,940.0,938.0,934.0,933.0,0.0,
952,953,954,957,957,953,955,956,958,956,955,954,953,954,957,958,958,958,958,963,967,969,968,967,966,969,972,975,976,976,976,977,979,980,978,976,973,973,976,976,974,970,970,976,978,979,971,965,963,959,961,959,958,955,952,951,953,955,956,957,952,953,955,957,953,954,949,949,951,951,954,950,948,951,950,953,950,948,947,947,944,938,931,927,920,913,919,937,963,993,1026,1076,1131,1176,1202.0,1205.0,1165.0,1096.0,1018.0,960.0,933.0,929.0,936.0,945.0,948.0,948.0,947.0,945.0,944.0,943.0,945.0,942.0,946.0,945.0,943.0,943.0,945.0,947.0,947.0,943.0,943.0,944.0,947.0,948.0,947.0,943.0,942.0,944.0,945.0,947.0,945.0,942.0,943.0,943.0,945.0,946.0,945.0,945.0,943.0,942.0,944.0,947.0,945.0,944.0,945.0,947.0,947.0,949.0,949.0,948.0,945.0,947.0,946.0,947.0,948.0,946.0,944.0,944.0,946.0,951.0,949.0,947.0,944.0,944.0,946.0,948.0,949.0,947.0,945.0,948.0,950.0,951.0,951.0,949.0,947.0,949.0,949.0,951.0,950.0,949.0,944.0,945.0,943.0,950.0,947.0,944.0,942.0,944.0,0.0,
964,959,959,958,960,962,963,961,958,960,962,963,964,965,960,962,964,969,970,972,974,977,978,979,978,978,976,978,979,983,983,984,982,985,984,986,984,982,979,979,980,980,980,978,974,975,978,983,987,985,979,974,973,971,969,963,960,959,959,958,958,959,957,956,957,960,957,955,953,954,953,954,955,956,953,954,956,956,956,953,944,937,933,930,924,916,915,931,953,982,1017,1061,1111,1159,1188.0,1189.0,1152.0,1088.0,1010.0,956.0,935.0,935.0,942.0,948.0,949.0,949.0,950.0,951.0,952.0,950.0,949.0,950.0,952.0,954.0,953.0,951.0,948.0,948.0,950.0,951.0,951.0,948.0,947.0,946.0,948.0,949.0,949.0,948.0,946.0,948.0,949.0,950.0,951.0,949.0,947.0,951.0,952.0,954.0,953.0,953.0,950.0,951.0,954.0,952.0,951.0,951.0,949.0,949.0,953.0,953.0,950.0,949.0,948.0,947.0,950.0,950.0,952.0,950.0,949.0,951.0,953.0,955.0,952.0,953.0,951.0,952.0,955.0,957.0,957.0,953.0,953.0,954.0,956.0,954.0,954.0,953.0,951.0,952.0,951.0,951.0,951.0,950.0,949.0,948.0,951.0,954.0,952.0,951.0,0.0,
960,961,957,955,957,959,959,960,959,957,960,960,962,962,960,958,956,959,963,963,966,966,970,971,971,972,972,970,969,972,975,977,978,975,976,978,976,979,976,975,976,980,980,978,975,973,976,981,979,973,967,962,962,958,957,954,954,952,953,956,956,957,954,952,952,955,955,954,954,952,954,954,955,953,953,950,949,946,939,933,929,924,916,910,922,941,957,972,994,1023,1065,1118,1160,1189,1209.0,1218.0,1201.0,1162.0,1107.0,1045.0,994.0,955.0,937.0,931.0,933.0,939.0,941.0,945.0,949.0,950.0,945.0,944.0,944.0,942.0,944.0,943.0,944.0,943.0,945.0,946.0,948.0,947.0,943.0,940.0,943.0,944.0,946.0,948.0,945.0,945.0,944.0,946.0,942.0,943.0,942.0,942.0,945.0,947.0,945.0,943.0,940.0,937.0,941.0,943.0,942.0,944.0,942.0,941.0,942.0,944.0,943.0,946.0,946.0,944.0,946.0,946.0,946.0,945.0,940.0,940.0,941.0,942.0,945.0,945.0,944.0,941.0,941.0,944.0,944.0,947.0,946.0,942.0,945.0,946.0,948.0,949.0,946.0,943.0,940.0,941.0,941.0,941.0,937.0,931.0,933.0,931.0,932.0,935.0,0.0,
950,950,952,956,954,951,953,954,956,956,953,953,954,954,957,956,956,958,954,961,964,966,969,968,967,969,970,973,976,974,973,976,979,979,976,973,972,969,972,975,973,971,968,970,974,977,978,975,970,968,968,966,961,957,953,953,953,952,952,949,948,952,953,954,955,950,950,953,953,954,955,953,953,952,953,953,953,952,949,950,946,939,931,926,919,912,912,925,952,980,1015,1062,1119,1169,1203.0,1203.0,1166.0,1094.0,1013.0,954.0,928.0,926.0,931.0,941.0,943.0,945.0,943.0,940.0,945.0,941.0,944.0,946.0,947.0,945.0,943.0,945.0,944.0,946.0,946.0,944.0,941.0,943.0,946.0,948.0,948.0,943.0,946.0,944.0,946.0,948.0,948.0,943.0,944.0,942.0,944.0,945.0,944.0,944.0,943.0,946.0,948.0,947.0,947.0,946.0,943.0,944.0,944.0,946.0,946.0,942.0,942.0,943.0,944.0,942.0,943.0,942.0,941.0,942.0,943.0,945.0,943.0,944.0,944.0,945.0,943.0,948.0,947.0,946.0,942.0,945.0,946.0,948.0,947.0,943.0,943.0,943.0,944.0,942.0,942.0,941.0,937.0,938.0,941.0,940.0,940.0,936.0,936.0,937.0,0.0,
961,963,963,959,959,961,964,965,962,961,960,961,962,965,967,970,974,975,978,980,979,977,978,980,983,986,986,986,983,983,983,982,981,979,978,979,980,980,976,976,978,983,985,985,980,975,969,972,969,967,964,964,962,962,960,960,959,957,955,957,957,958,957,955,952,955,957,955,955,953,952,953,956,956,954,954,953,953,953,950,939,931,928,924,918,917,927,945,973,1005,1043,1094,1150,1193,1215.0,1219.0,1189.0,1120.0,1035.0,970.0,933.0,927.0,936.0,943.0,949.0,949.0,946.0,948.0,952.0,953.0,955.0,951.0,949.0,950.0,950.0,953.0,950.0,949.0,948.0,947.0,948.0,948.0,948.0,947.0,945.0,945.0,946.0,947.0,948.0,948.0,945.0,946.0,948.0,950.0,949.0,947.0,948.0,949.0,951.0,952.0,951.0,951.0,947.0,950.0,951.0,953.0,947.0,945.0,945.0,947.0,950.0,948.0,950.0,949.0,946.0,947.0,948.0,950.0,950.0,947.0,947.0,948.0,947.0,950.0,949.0,949.0,948.0,948.0,953.0,952.0,951.0,950.0,948.0,950.0,949.0,952.0,950.0,948.0,947.0,949.0,949.0,950.0,950.0,947.0,944.0,945.0,947.0,945.0,0.0,
961,962,960,958,960,963,962,963,965,960,963,966,967,967,967,967,971,974,974,974,974,974,974,978,981,979,979,978,978,979,981,981,978,974,976,978,978,976,974,973,980,984,984,979,971,966,966,964,962,959,957,956,954,956,956,955,958,954,955,955,956,954,953,953,953,955,956,956,953,952,952,953,955,955,952,950,949,950,948,940,931,927,921,915,909,915,934,959,985,1015,1057,1109,1155,1186,1199.0,1187.0,1142.0,1068.0,994.0,948.0,930.0,931.0,939.0,947.0,949.0,945.0,947.0,949.0,953.0,950.0,952.0,951.0,950.0,950.0,952.0,951.0,949.0,948.0,950.0,950.0,950.0,948.0,947.0,945.0,946.0,948.0,949.0,949.0,945.0,944.0,945.0,950.0,950.0,950.0,951.0,946.0,947.0,949.0,952.0,948.0,946.0,946.0,947.0,949.0,949.0,949.0,948.0,946.0,948.0,951.0,948.0,948.0,947.0,946.0,946.0,948.0,948.0,947.0,945.0,944.0,947.0,948.0,952.0,950.0,949.0,950.0,947.0,950.0,951.0,952.0,951.0,949.0,948.0,951.0,950.0,952.0,950.0,945.0,947.0,947.0,946.0,946.0,946.0,942.0,946.0,948.0,946.0,948.0,0.0,
962,959,961,958,961,960,959,958,958,961,962,963,962,962,964,967,969,970,970,968,971,973,974,975,974,975,979,981,980,980,978,977,976,976,978,979,976,970,974,973,977,979,981,976,972,969,967,961,960,955,954,954,952,951,953,952,952,952,954,955,953,949,951,954,955,956,957,953,951,954,955,955,953,950,950,951,952,947,941,933,931,932,929,925,913,907,914,932,955,983,1016,1062,1115,1160,1192.0,1200.0,1169.0,1104.0,1024.0,968.0,937.0,922.0,927.0,932.0,938.0,943.0,942.0,942.0,941.0,943.0,941.0,945.0,946.0,945.0,943.0,942.0,942.0,945.0,946.0,944.0,944.0,945.0,944.0,947.0,947.0,945.0,942.0,940.0,942.0,944.0,946.0,942.0,941.0,939.0,939.0,943.0,944.0,939.0,941.0,941.0,942.0,943.0,944.0,942.0,943.0,941.0,942.0,944.0,945.0,944.0,943.0,943.0,941.0,943.0,944.0,943.0,942.0,940.0,941.0,944.0,945.0,944.0,941.0,940.0,942.0,944.0,945.0,944.0,941.0,942.0,941.0,941.0,943.0,942.0,940.0,936.0,938.0,938.0,939.0,937.0,937.0,936.0,934.0,934.0,934.0,931.0,930.0,927.0,0.0,
954,955,955,956,956,955,952,954,955,957,955,955,953,955,957,959,960,963,963,964,967,968,971,969,970,975,976,978,977,978,975,975,976,974,973,973,970,971,971,971,973,974,977,978,974,972,968,963,956,958,957,958,955,954,952,952,952,951,951,953,951,952,952,952,953,949,949,951,952,950,952,948,946,947,947,951,949,949,944,945,938,932,928,922,910,907,921,947,976,1007,1049,1105,1159,1197,1211.0,1192.0,1135.0,1052.0,984.0,943.0,927.0,927.0,934.0,947.0,947.0,947.0,946.0,947.0,945.0,946.0,947.0,947.0,946.0,945.0,946.0,946.0,945.0,948.0,947.0,946.0,943.0,944.0,945.0,946.0,946.0,946.0,943.0,949.0,946.0,948.0,946.0,947.0,946.0,947.0,950.0,951.0,951.0,948.0,946.0,946.0,947.0,949.0,948.0,946.0,946.0,945.0,949.0,947.0,947.0,944.0,946.0,947.0,947.0,949.0,948.0,945.0,943.0,947.0,948.0,949.0,948.0,948.0,946.0,946.0,948.0,953.0,953.0,950.0,947.0,949.0,947.0,949.0,946.0,946.0,944.0,944.0,947.0,946.0,946.0,943.0,941.0,943.0,943.0,943.0,942.0,939.0,938.0,940.0,0.0,
965,964,962,959,961,961,964,964,962,960,961,963,964,964,964,964,967,972,975,976,975,974,976,975,978,980,978,977,978,983,984,985,982,981,983,983,983,982,979,978,979,980,980,981,984,986,986,983,979,974,970,964,963,960,960,959,957,956,957,955,958,958,955,955,954,957,957,957,956,955,956,960,959,959,957,955,954,945,938,932,923,915,909,912,933,958,977,998,1024,1056,1094,1133,1164,1187,1210.0,1231.0,1234.0,1208.0,1138.0,1047.0,975.0,940.0,939.0,946.0,953.0,952.0,951.0,953.0,954.0,952.0,951.0,946.0,947.0,949.0,950.0,950.0,948.0,945.0,947.0,949.0,951.0,950.0,947.0,944.0,947.0,947.0,950.0,949.0,947.0,945.0,946.0,950.0,952.0,952.0,951.0,950.0,950.0,951.0,953.0,952.0,950.0,948.0,948.0,951.0,950.0,951.0,948.0,946.0,948.0,948.0,951.0,951.0,949.0,947.0,947.0,949.0,952.0,953.0,950.0,949.0,950.0,950.0,953.0,951.0,952.0,947.0,947.0,948.0,952.0,951.0,949.0,948.0,950.0,950.0,950.0,952.0,947.0,945.0,948.0,949.0,951.0,949.0,947.0,946.0,949.0,950.0,950.0,950.0,0.0,
957,959,961,960,961,960,962,962,962,963,964,962,962,964,967,966,969,969,969,970,973,976,975,976,975,975,980,983,986,985,986,984,985,984,982,981,980,982,982,984,982,980,981,980,977,979,979,980,984,983,978,974,972,967,964,961,958,959,957,956,955,958,960,960,959,957,957,957,958,958,957,954,953,954,955,956,954,952,946,944,937,931,928,921,910,908,920,944,974,1005,1044,1103,1156,1190,1200.0,1176.0,1116.0,1038.0,976.0,939.0,927.0,928.0,938.0,944.0,945.0,944.0,944.0,945.0,946.0,949.0,951.0,950.0,947.0,945.0,943.0,946.0,946.0,947.0,948.0,945.0,944.0,948.0,948.0,949.0,947.0,945.0,943.0,944.0,945.0,945.0,948.0,945.0,946.0,945.0,944.0,946.0,947.0,946.0,944.0,946.0,948.0,948.0,947.0,948.0,947.0,950.0,949.0,950.0,950.0,949.0,947.0,947.0,949.0,947.0,948.0,944.0,943.0,944.0,947.0,948.0,949.0,945.0,943.0,943.0,945.0,946.0,948.0,947.0,945.0,949.0,949.0,948.0,947.0,949.0,947.0,947.0,949.0,948.0,944.0,943.0,941.0,942.0,941.0,944.0,942.0,942.0,941.0,941.0,0.0,
954,956,955,956,958,957,956,960,959,958,954,954,957,960,962,963,965,965,969,970,973,971,974,974,974,979,980,980,978,974,974,974,977,978,975,976,977,977,978,973,972,969,971,973,978,979,976,970,967,965,963,960,953,951,952,951,953,953,952,951,951,953,955,953,950,947,950,954,954,955,952,950,950,952,955,952,951,947,946,943,938,934,930,921,914,911,923,940,965,998,1040,1096,1148,1191,1208.0,1190.0,1133.0,1056.0,988.0,945.0,926.0,921.0,930.0,939.0,942.0,942.0,941.0,942.0,943.0,945.0,945.0,945.0,943.0,942.0,944.0,943.0,945.0,944.0,942.0,940.0,941.0,941.0,943.0,942.0,938.0,935.0,935.0,939.0,941.0,940.0,940.0,939.0,940.0,939.0,942.0,941.0,937.0,936.0,937.0,941.0,941.0,942.0,942.0,940.0,938.0,937.0,939.0,940.0,940.0,939.0,939.0,939.0,940.0,939.0,939.0,939.0,940.0,941.0,941.0,941.0,940.0,938.0,939.0,940.0,941.0,940.0,940.0,938.0,940.0,940.0,942.0,943.0,939.0,937.0,936.0,940.0,941.0,938.0,936.0,934.0,934.0,935.0,935.0,935.0,931.0,929.0,926.0,928.0,0.0,
950,947,949,952,951,951,948,948,950,952,952,954,952,951,954,955,957,959,960,958,960,964,964,965,963,965,967,970,970,973,971,970,969,971,969,970,967,965,965,967,969,968,964,966,967,973,976,970,964,956,956,954,952,948,946,943,944,947,947,947,943,942,943,946,944,945,941,941,943,945,946,946,943,941,941,944,943,938,928,919,914,910,905,895,896,910,936,957,974,994,1021,1056,1106,1157,1195.0,1215.0,1206.0,1153.0,1067.0,985.0,935.0,916.0,922.0,927.0,937.0,935.0,936.0,936.0,936.0,934.0,933.0,933.0,934.0,933.0,932.0,930.0,931.0,934.0,936.0,934.0,935.0,932.0,932.0,936.0,935.0,935.0,934.0,933.0,934.0,933.0,937.0,933.0,934.0,933.0,933.0,935.0,936.0,937.0,937.0,934.0,935.0,938.0,936.0,934.0,934.0,933.0,932.0,936.0,937.0,935.0,933.0,932.0,933.0,936.0,935.0,936.0,934.0,931.0,934.0,933.0,936.0,936.0,934.0,929.0,933.0,934.0,934.0,936.0,936.0,933.0,936.0,936.0,937.0,936.0,935.0,933.0,934.0,936.0,937.0,934.0,935.0,933.0,934.0,935.0,935.0,933.0,930.0,930.0,0.0,
942,942,941,941,943,945,943,942,942,944,945,945,945,943,946,950,951,953,953,953,954,956,958,959,956,955,955,959,964,963,963,960,964,961,965,963,960,958,960,964,965,962,959,960,964,968,965,958,951,947,946,945,945,942,940,936,938,940,941,942,938,937,938,938,940,940,936,935,938,938,939,938,938,935,936,933,938,936,933,928,922,915,911,908,897,891,898,922,953,984,1019,1072,1132,1175,1193.0,1183.0,1134.0,1048.0,967.0,920.0,907.0,912.0,920.0,924.0,930.0,929.0,930.0,932.0,928.0,927.0,927.0,930.0,931.0,929.0,928.0,926.0,927.0,929.0,930.0,929.0,926.0,925.0,925.0,925.0,928.0,926.0,927.0,925.0,926.0,927.0,928.0,929.0,927.0,926.0,927.0,928.0,929.0,927.0,927.0,922.0,925.0,926.0,927.0,929.0,929.0,925.0,929.0,929.0,929.0,930.0,925.0,925.0,925.0,926.0,930.0,927.0,925.0,923.0,925.0,926.0,926.0,928.0,926.0,924.0,925.0,926.0,929.0,928.0,926.0,924.0,928.0,927.0,929.0,928.0,928.0,928.0,930.0,931.0,932.0,929.0,929.0,928.0,926.0,928.0,930.0,928.0,925.0,923.0,0.0,
943,941,940,939,939,940,939,940,939,936,936,939,940,940,941,939,944,948,951,950,950,951,953,955,958,960,960,958,959,961,961,961,959,956,955,957,959,957,953,948,952,955,963,965,961,957,951,950,949,947,943,938,938,938,938,937,934,932,932,932,933,934,934,931,930,930,932,929,928,926,928,931,931,928,927,925,925,926,926,919,913,904,902,900,893,888,893,909,935,962,998,1049,1103,1144,1169.0,1167.0,1130.0,1061.0,985.0,933.0,906.0,901.0,907.0,915.0,917.0,917.0,917.0,919.0,923.0,921.0,923.0,921.0,921.0,926.0,925.0,924.0,926.0,920.0,922.0,920.0,923.0,923.0,923.0,921.0,921.0,924.0,922.0,921.0,919.0,918.0,919.0,917.0,920.0,919.0,920.0,918.0,920.0,920.0,922.0,921.0,922.0,918.0,918.0,920.0,922.0,923.0,919.0,918.0,919.0,922.0,925.0,924.0,922.0,920.0,920.0,921.0,923.0,924.0,922.0,920.0,923.0,921.0,922.0,920.0,923.0,923.0,921.0,919.0,924.0,925.0,925.0,923.0,925.0,926.0,929.0,926.0,925.0,922.0,923.0,924.0,924.0,924.0,923.0,921.0,923.0,923.0,921.0,922.0,0.0,
937,939,942,940,936,935,937,938,938,939,938,939,942,942,948,951,950,944,946,950,953,954,952,948,950,953,958,959,959,958,960,960,961,960,956,953,954,956,956,952,950,947,950,956,959,957,948,946,942,940,940,936,934,932,935,933,937,935,934,932,931,932,933,933,931,928,931,933,933,930,930,929,927,930,928,932,928,927,927,925,919,916,910,905,897,890,898,916,941,968,1008,1057,1111,1159,1184.0,1190.0,1156.0,1093.0,1016.0,954.0,918.0,903.0,899.0,906.0,915.0,920.0,922.0,918.0,921.0,924.0,925.0,925.0,923.0,923.0,923.0,925.0,924.0,924.0,924.0,920.0,923.0,925.0,925.0,924.0,922.0,921.0,922.0,924.0,928.0,924.0,923.0,920.0,921.0,923.0,926.0,922.0,923.0,924.0,923.0,926.0,928.0,926.0,927.0,924.0,924.0,926.0,927.0,925.0,923.0,923.0,922.0,924.0,926.0,926.0,924.0,922.0,921.0,925.0,925.0,926.0,921.0,922.0,923.0,925.0,925.0,927.0,926.0,922.0,925.0,927.0,928.0,928.0,925.0,922.0,920.0,922.0,923.0,921.0,920.0,916.0,916.0,920.0,918.0,917.0,916.0,913.0,913.0,916.0,0.0,
945,945,943,940,940,943,945,946,942,941,941,942,946,946,944,945,945,949,950,955,954,956,958,960,964,963,960,960,962,967,969,968,966,965,963,964,964,962,961,959,963,963,961,961,962,963,969,973,972,965,959,956,954,954,952,949,948,943,944,943,946,943,941,939,940,941,940,942,939,939,938,942,942,944,940,938,939,941,938,934,926,916,914,910,905,903,913,939,973,1008,1056,1113,1165,1201,1225.0,1233.0,1219.0,1172.0,1094.0,1010.0,943.0,914.0,912.0,917.0,924.0,933.0,933.0,935.0,935.0,936.0,933.0,931.0,931.0,931.0,931.0,931.0,928.0,927.0,928.0,930.0,930.0,932.0,932.0,929.0,929.0,930.0,933.0,933.0,932.0,932.0,932.0,933.0,934.0,934.0,933.0,929.0,931.0,931.0,934.0,934.0,933.0,928.0,930.0,935.0,937.0,936.0,934.0,932.0,932.0,935.0,938.0,939.0,934.0,932.0,933.0,934.0,936.0,935.0,936.0,934.0,935.0,936.0,937.0,934.0,934.0,933.0,933.0,932.0,934.0,937.0,931.0,931.0,934.0,937.0,938.0,937.0,934.0,931.0,931.0,932.0,933.0,933.0,932.0,930.0,930.0,932.0,934.0,933.0,0.0,
945,946,947,949,949,948,946,948,949,949,951,950,950,953,952,954,957,954,954,956,960,965,965,963,961,964,967,967,967,967,970,969,972,975,974,972,970,968,968,971,971,971,969,970,973,976,978,976,969,962,963,960,958,954,950,949,951,950,950,950,948,947,948,950,952,950,947,949,949,948,948,945,944,944,946,946,946,945,941,939,937,929,924,919,910,903,905,924,952,978,1013,1064,1124,1170,1195.0,1191.0,1148.0,1069.0,992.0,941.0,919.0,921.0,930.0,937.0,941.0,941.0,942.0,943.0,941.0,940.0,941.0,944.0,941.0,940.0,938.0,940.0,943.0,942.0,944.0,941.0,938.0,940.0,939.0,943.0,942.0,940.0,937.0,938.0,939.0,941.0,940.0,939.0,937.0,939.0,940.0,942.0,942.0,940.0,939.0,941.0,943.0,944.0,943.0,944.0,942.0,940.0,943.0,945.0,941.0,942.0,938.0,939.0,941.0,941.0,942.0,940.0,938.0,939.0,942.0,942.0,944.0,943.0,941.0,940.0,943.0,944.0,946.0,944.0,944.0,943.0,945.0,946.0,943.0,944.0,938.0,938.0,940.0,941.0,943.0,939.0,937.0,938.0,939.0,941.0,939.0,939.0,936.0,937.0,0.0,
948,948,950,949,948,946,945,946,953,954,952,949,947,948,949,954,953,953,953,955,958,961,962,959,961,964,967,971,973,970,971,971,973,973,971,969,966,969,969,967,965,964,966,970,969,965,962,955,951,950,946,947,945,942,941,943,945,944,943,944,943,942,946,945,945,941,938,938,941,942,943,942,942,940,942,941,939,933,924,922,920,920,910,901,893,896,910,929,952,977,1016,1072,1127,1166,1183.0,1168.0,1111.0,1037.0,974.0,935.0,917.0,914.0,922.0,928.0,934.0,934.0,935.0,936.0,933.0,934.0,934.0,936.0,936.0,935.0,934.0,933.0,935.0,937.0,938.0,936.0,933.0,935.0,935.0,936.0,937.0,932.0,932.0,933.0,931.0,934.0,935.0,930.0,927.0,931.0,932.0,932.0,934.0,934.0,930.0,932.0,933.0,936.0,937.0,935.0,934.0,937.0,936.0,935.0,935.0,934.0,934.0,936.0,937.0,936.0,935.0,933.0,929.0,932.0,934.0,937.0,936.0,935.0,933.0,934.0,937.0,937.0,934.0,934.0,932.0,933.0,936.0,938.0,939.0,937.0,932.0,931.0,935.0,936.0,936.0,930.0,928.0,926.0,928.0,929.0,927.0,926.0,925.0,926.0,0.0,
946,948,948,948,946,948,948,949,948,946,942,943,945,945,947,943,943,947,950,957,959,959,955,957,959,960,960,962,962,964,966,968,967,965,963,965,966,967,966,964,961,962,962,966,969,968,964,960,956,956,950,945,940,941,939,941,942,940,939,939,938,941,942,939,936,935,937,940,942,940,937,939,939,941,940,938,937,934,930,926,920,917,913,906,901,900,913,935,959,989,1029,1077,1132,1171,1194.0,1195.0,1160.0,1089.0,1007.0,946.0,920.0,913.0,918.0,926.0,933.0,933.0,931.0,931.0,934.0,936.0,934.0,935.0,931.0,936.0,934.0,937.0,936.0,934.0,932.0,930.0,933.0,933.0,932.0,929.0,927.0,929.0,931.0,933.0,932.0,932.0,932.0,932.0,931.0,934.0,933.0,932.0,928.0,930.0,932.0,931.0,933.0,932.0,930.0,933.0,934.0,933.0,933.0,933.0,930.0,928.0,930.0,933.0,932.0,930.0,928.0,930.0,931.0,933.0,932.0,932.0,931.0,930.0,933.0,935.0,935.0,934.0,933.0,934.0,936.0,939.0,937.0,936.0,934.0,933.0,933.0,934.0,935.0,932.0,932.0,930.0,931.0,932.0,932.0,929.0,926.0,928.0,928.0,929.0,0.0,
947,943,947,950,950,952,949,950,949,953,956,955,956,955,959,962,963,963,964,963,964,967,971,971,970,968,969,969,971,971,969,965,966,966,970,969,967,964,965,970,976,975,972,965,962,961,959,954,951,947,948,946,950,950,949,948,946,947,946,948,946,944,943,946,947,947,945,941,943,944,947,944,944,940,940,937,934,925,920,914,913,911,908,899,892,902,923,945,976,1007,1047,1101,1156,1197,1215.0,1206.0,1156.0,1078.0,996.0,939.0,920.0,921.0,926.0,931.0,935.0,938.0,937.0,937.0,934.0,933.0,934.0,934.0,936.0,935.0,933.0,932.0,932.0,934.0,934.0,935.0,934.0,931.0,933.0,936.0,937.0,937.0,936.0,932.0,933.0,937.0,936.0,933.0,934.0,932.0,932.0,934.0,935.0,936.0,933.0,931.0,933.0,935.0,936.0,937.0,935.0,933.0,936.0,939.0,938.0,938.0,935.0,934.0,938.0,937.0,939.0,938.0,937.0,934.0,934.0,934.0,937.0,934.0,936.0,933.0,935.0,936.0,937.0,934.0,933.0,933.0,936.0,936.0,940.0,940.0,938.0,935.0,935.0,939.0,939.0,940.0,940.0,936.0,937.0,938.0,939.0,937.0,935.0,932.0,0.0,
947,951,949,948,946,947,949,952,950,948,946,946,949,951,949,952,950,953,960,962,964,964,962,962,967,970,973,969,969,970,969,970,968,965,962,963,965,967,967,965,961,961,962,964,966,965,967,971,971,966,963,959,953,951,949,948,947,947,943,944,947,947,945,944,940,942,943,944,943,942,939,940,940,944,943,941,938,938,937,933,925,916,912,906,898,898,911,935,959,986,1024,1073,1128,1168,1191.0,1195.0,1172.0,1122.0,1049.0,986.0,939.0,917.0,907.0,907.0,914.0,923.0,928.0,932.0,934.0,936.0,936.0,937.0,934.0,934.0,934.0,935.0,937.0,934.0,933.0,932.0,931.0,937.0,935.0,934.0,934.0,932.0,933.0,935.0,935.0,931.0,930.0,934.0,933.0,939.0,938.0,938.0,933.0,936.0,937.0,939.0,937.0,937.0,935.0,934.0,936.0,936.0,937.0,936.0,936.0,935.0,939.0,940.0,941.0,939.0,935.0,934.0,937.0,939.0,938.0,934.0,934.0,936.0,934.0,939.0,937.0,935.0,934.0,935.0,936.0,939.0,938.0,934.0,934.0,935.0,938.0,938.0,937.0,937.0,935.0,935.0,938.0,939.0,938.0,935.0,937.0,938.0,938.0,939.0,0.0,
944,942,941,943,944,944,942,940,940,942,944,941,940,938,939,942,945,948,949,950,953,955,957,957,957,957,962,964,963,965,966,964,964,965,965,963,961,958,959,959,960,961,958,953,955,960,965,963,959,949,948,947,945,943,940,937,938,940,943,944,941,937,936,934,938,936,935,934,933,934,937,936,934,932,935,936,937,938,937,932,926,922,919,914,905,895,895,913,937,963,997,1045,1104,1155,1183.0,1182.0,1144.0,1070.0,995.0,944.0,920.0,912.0,914.0,923.0,931.0,932.0,933.0,933.0,934.0,931.0,932.0,931.0,930.0,930.0,930.0,926.0,927.0,930.0,931.0,932.0,931.0,930.0,928.0,929.0,931.0,933.0,929.0,928.0,932.0,934.0,936.0,935.0,935.0,932.0,933.0,933.0,931.0,933.0,928.0,931.0,931.0,933.0,933.0,932.0,929.0,928.0,930.0,931.0,933.0,931.0,934.0,933.0,934.0,937.0,938.0,936.0,935.0,933.0,933.0,934.0,936.0,937.0,933.0,931.0,933.0,936.0,936.0,936.0,936.0,932.0,933.0,934.0,938.0,937.0,933.0,929.0,929.0,930.0,932.0,930.0,931.0,927.0,926.0,931.0,932.0,932.0,929.0,926.0,0.0,
945,945,947,948,947,948,948,948,950,948,950,948,947,944,949,951,955,953,954,954,958,961,962,963,961,961,964,969,968,967,966,967,970,970,969,969,967,966,965,967,967,967,964,964,965,966,970,970,967,964,961,960,958,952,946,945,941,945,944,945,943,941,944,943,944,943,943,942,943,944,942,940,938,939,940,943,940,941,937,935,930,924,920,915,905,899,906,926,956,985,1021,1073,1128,1173,1201.0,1200.0,1160.0,1089.0,1008.0,953.0,924.0,914.0,917.0,927.0,933.0,936.0,935.0,936.0,935.0,936.0,938.0,939.0,941.0,937.0,934.0,935.0,938.0,939.0,938.0,936.0,932.0,933.0,932.0,933.0,936.0,934.0,933.0,932.0,934.0,937.0,938.0,936.0,932.0,932.0,934.0,936.0,937.0,937.0,936.0,936.0,939.0,939.0,938.0,937.0,935.0,935.0,936.0,937.0,933.0,936.0,933.0,935.0,934.0,936.0,936.0,935.0,934.0,935.0,937.0,938.0,939.0,938.0,936.0,937.0,939.0,938.0,941.0,937.0,934.0,936.0,938.0,939.0,940.0,937.0,935.0,936.0,937.0,938.0,936.0,933.0,932.0,930.0,933.0,933.0,931.0,930.0,927.0,927.0,0.0,
952,953,955,954,949,947,952,953,956,955,954,951,952,955,956,956,956,955,957,959,966,968,967,965,966,969,969,972,974,972,975,978,978,976,976,974,971,974,975,977,974,968,970,976,980,982,977,967,966,961,962,962,956,952,955,955,956,951,953,948,951,953,952,953,952,949,948,950,951,952,952,949,949,949,953,951,951,946,941,938,930,924,919,908,904,912,935,963,992,1023,1070,1131,1183,1221,1234.0,1219.0,1167.0,1078.0,995.0,942.0,920.0,924.0,937.0,946.0,946.0,944.0,942.0,940.0,941.0,943.0,942.0,941.0,940.0,937.0,937.0,939.0,940.0,939.0,938.0,937.0,938.0,939.0,942.0,941.0,940.0,938.0,937.0,938.0,939.0,938.0,936.0,936.0,936.0,938.0,940.0,939.0,939.0,937.0,938.0,937.0,938.0,939.0,938.0,937.0,939.0,940.0,940.0,940.0,940.0,936.0,937.0,938.0,939.0,937.0,936.0,935.0,937.0,937.0,939.0,939.0,937.0,935.0,937.0,935.0,940.0,939.0,938.0,936.0,937.0,940.0,940.0,940.0,941.0,938.0,938.0,938.0,941.0,939.0,937.0,934.0,935.0,936.0,937.0,936.0,937.0,935.0,936.0,936.0,0.0,
956,953,951,951,954,954,954,953,951,950,954,955,955,954,952,954,959,960,965,965,962,967,968,971,974,972,971,973,976,979,978,975,971,971,971,970,973,972,969,967,969,972,979,978,974,967,964,967,964,959,955,955,957,959,960,958,954,953,952,953,952,951,949,948,949,950,950,950,945,945,947,946,946,948,946,948,947,950,948,944,939,932,924,923,916,905,901,917,946,979,1019,1071,1126,1173,1194.0,1176.0,1114.0,1028.0,954.0,918.0,919.0,932.0,941.0,945.0,941.0,941.0,942.0,946.0,947.0,944.0,939.0,939.0,941.0,941.0,943.0,939.0,939.0,940.0,940.0,940.0,942.0,940.0,939.0,939.0,942.0,944.0,945.0,944.0,942.0,941.0,943.0,945.0,947.0,943.0,942.0,944.0,943.0,946.0,946.0,946.0,944.0,943.0,945.0,944.0,944.0,944.0,940.0,941.0,944.0,945.0,944.0,942.0,942.0,944.0,944.0,947.0,945.0,943.0,941.0,942.0,943.0,947.0,946.0,945.0,943.0,946.0,947.0,946.0,945.0,942.0,941.0,940.0,943.0,945.0,944.0,941.0,938.0,938.0,940.0,942.0,940.0,937.0,939.0,938.0,939.0,941.0,941.0,939.0,0.0,
940,942,941,943,947,946,945,946,949,949,948,946,945,948,948,955,957,955,957,955,959,960,960,957,955,958,962,962,964,962,961,964,966,966,963,963,962,961,963,964,960,960,961,964,967,965,958,955,948,945,944,945,940,937,935,935,936,938,939,937,935,937,939,941,939,936,935,934,937,938,939,939,935,934,935,936,930,923,915,910,905,895,890,896,910,930,950,966,986,1010,1041,1084,1127,1164,1188.0,1192.0,1162.0,1091.0,1016.0,957.0,920.0,906.0,908.0,918.0,926.0,929.0,930.0,927.0,926.0,928.0,929.0,930.0,929.0,928.0,924.0,923.0,923.0,927.0,929.0,927.0,924.0,924.0,927.0,930.0,927.0,925.0,925.0,925.0,928.0,928.0,932.0,932.0,930.0,929.0,928.0,929.0,926.0,926.0,923.0,924.0,927.0,928.0,927.0,928.0,924.0,925.0,928.0,929.0,929.0,930.0,926.0,929.0,928.0,930.0,927.0,928.0,926.0,927.0,926.0,926.0,925.0,924.0,921.0,921.0,925.0,927.0,931.0,929.0,926.0,925.0,924.0,925.0,924.0,922.0,923.0,922.0,924.0,923.0,922.0,919.0,915.0,916.0,918.0,918.0,917.0,914.0,912.0,915.0,0.0,
937,940,941,939,939,938,937,940,940,941,940,937,938,941,946,948,947,947,949,948,954,957,957,958,957,960,963,966,964,959,959,959,960,957,958,955,955,956,955,957,959,959,960,956,955,952,948,942,940,941,942,941,938,937,937,937,937,938,937,934,932,934,937,936,935,933,933,934,934,935,935,930,931,933,935,934,935,932,930,926,920,916,911,902,896,896,911,935,961,992,1036,1092,1144,1181,1194.0,1172.0,1115.0,1040.0,972.0,927.0,910.0,908.0,913.0,923.0,925.0,929.0,927.0,927.0,926.0,927.0,930.0,929.0,926.0,925.0,924.0,923.0,926.0,925.0,924.0,925.0,925.0,925.0,929.0,929.0,926.0,925.0,926.0,928.0,928.0,928.0,926.0,924.0,924.0,928.0,929.0,927.0,928.0,923.0,927.0,928.0,931.0,928.0,926.0,925.0,926.0,927.0,927.0,929.0,926.0,925.0,924.0,926.0,928.0,927.0,925.0,924.0,927.0,927.0,929.0,928.0,927.0,925.0,924.0,926.0,927.0,927.0,925.0,924.0,925.0,927.0,929.0,930.0,927.0,926.0,928.0,924.0,927.0,929.0,926.0,923.0,925.0,924.0,925.0,924.0,920.0,918.0,919.0,921.0,0.0,
942,941,942,943,944,945,944,941,942,945,946,945,947,948,951,955,960,961,961,956,956,961,962,962,960,961,961,965,966,966,967,963,963,964,964,962,959,957,959,960,962,961,961,962,968,970,967,961,956,951,951,949,947,946,939,937,939,941,942,943,941,938,938,940,941,942,941,936,938,941,942,940,939,937,938,937,939,936,931,921,914,913,910,903,896,894,905,930,959,988,1023,1070,1127,1175,1201.0,1210.0,1191.0,1137.0,1056.0,984.0,941.0,917.0,912.0,912.0,920.0,927.0,935.0,937.0,936.0,935.0,933.0,933.0,934.0,933.0,930.0,927.0,927.0,928.0,929.0,928.0,928.0,926.0,926.0,926.0,928.0,930.0,928.0,925.0,926.0,928.0,932.0,932.0,933.0,928.0,928.0,932.0,933.0,933.0,932.0,926.0,929.0,929.0,931.0,934.0,931.0,929.0,930.0,931.0,933.0,934.0,933.0,930.0,929.0,933.0,935.0,935.0,934.0,930.0,931.0,933.0,934.0,935.0,932.0,929.0,929.0,931.0,934.0,934.0,929.0,930.0,930.0,930.0,932.0,934.0,930.0,930.0,929.0,931.0,934.0,935.0,931.0,930.0,930.0,933.0,931.0,934.0,932.0,931.0,0.0,
948,949,947,947,948,949,950,948,949,948,951,955,956,954,955,959,961,961,963,961,961,963,966,968,970,970,967,968,968,969,969,966,964,966,967,969,969,966,967,971,974,972,966,961,956,950,949,950,950,946,944,944,946,947,946,943,941,943,943,944,947,945,941,942,944,945,943,940,940,939,941,942,941,936,927,920,916,914,908,898,888,885,890,895,905,919,931,946,958,979,1014,1061,1112,1158,1186.0,1189.0,1156.0,1095.0,1017.0,954.0,924.0,918.0,923.0,930.0,933.0,934.0,934.0,937.0,938.0,936.0,934.0,933.0,933.0,936.0,937.0,936.0,934.0,934.0,936.0,939.0,939.0,939.0,933.0,933.0,938.0,939.0,936.0,936.0,934.0,935.0,937.0,939.0,940.0,938.0,937.0,938.0,937.0,938.0,938.0,935.0,934.0,934.0,937.0,938.0,939.0,939.0,937.0,937.0,941.0,940.0,938.0,937.0,935.0,935.0,936.0,936.0,936.0,936.0,936.0,934.0,937.0,938.0,939.0,940.0,936.0,935.0,940.0,940.0,940.0,939.0,937.0,939.0,942.0,942.0,940.0,938.0,936.0,937.0,935.0,941.0,938.0,940.0,937.0,937.0,938.0,939.0,939.0,938.0,0.0,
943,941,945,946,946,949,946,946,948,948,947,946,942,944,946,948,947,946,948,952,954,959,958,958,958,955,962,965,967,968,968,969,971,969,970,969,964,965,967,965,964,959,959,963,967,967,962,956,950,948,946,948,948,947,942,943,945,946,946,942,938,941,940,943,943,943,943,942,943,942,941,939,939,941,941,943,943,942,939,937,935,927,920,915,908,901,903,919,948,978,1014,1065,1124,1170,1191.0,1175.0,1120.0,1039.0,969.0,930.0,915.0,915.0,923.0,930.0,933.0,936.0,936.0,935.0,935.0,934.0,935.0,934.0,936.0,934.0,932.0,931.0,935.0,935.0,934.0,933.0,931.0,930.0,932.0,934.0,933.0,933.0,931.0,932.0,936.0,937.0,936.0,934.0,933.0,934.0,935.0,935.0,935.0,933.0,933.0,935.0,936.0,936.0,933.0,929.0,931.0,931.0,933.0,936.0,936.0,935.0,935.0,936.0,936.0,937.0,936.0,933.0,931.0,930.0,929.0,934.0,935.0,936.0,934.0,932.0,934.0,937.0,937.0,933.0,932.0,931.0,932.0,934.0,933.0,933.0,931.0,933.0,933.0,935.0,931.0,930.0,928.0,927.0,926.0,927.0,928.0,925.0,921.0,921.0,0.0,
952,951,949,948,949,952,953,950,948,951,954,953,953,953,950,952,954,957,955,954,953,955,959,962,962,963,963,963,967,969,971,971,972,975,976,979,976,977,975,972,976,978,975,973,974,973,972,972,976,976,975,974,970,967,963,958,955,955,953,953,952,951,951,950,954,954,953,951,949,949,952,953,953,952,948,947,949,950,947,942,935,926,923,919,908,905,915,942,972,1007,1048,1102,1151,1193,1210.0,1196.0,1139.0,1056.0,981.0,933.0,918.0,916.0,917.0,914.0,917.0,922.0,932.0,942.0,942.0,939.0,938.0,938.0,939.0,942.0,942.0,939.0,938.0,939.0,940.0,943.0,942.0,942.0,942.0,940.0,943.0,945.0,945.0,942.0,941.0,940.0,942.0,944.0,942.0,940.0,940.0,939.0,941.0,941.0,943.0,941.0,940.0,938.0,939.0,943.0,942.0,942.0,940.0,941.0,944.0,947.0,945.0,945.0,943.0,943.0,944.0,946.0,945.0,943.0,940.0,940.0,943.0,946.0,944.0,942.0,940.0,939.0,942.0,944.0,945.0,943.0,942.0,940.0,944.0,943.0,943.0,942.0,939.0,941.0,941.0,944.0,943.0,941.0,938.0,940.0,942.0,940.0,939.0,940.0,0.0,
956,957,955,958,960,959,960,957,954,956,959,960,957,955,958,958,963,963,967,967,969,968,971,972,973,974,975,979,982,986,980,980,978,978,980,977,975,972,974,976,978,978,975,970,967,973,978,981,982,979,972,967,968,963,961,957,955,957,957,956,956,953,953,953,955,951,947,948,947,949,951,950,949,948,948,949,950,949,946,939,933,927,927,920,913,907,918,947,977,1005,1047,1097,1151,1192,1209.0,1196.0,1143.0,1063.0,980.0,935.0,923.0,928.0,937.0,941.0,943.0,946.0,946.0,945.0,944.0,942.0,941.0,944.0,945.0,943.0,943.0,943.0,943.0,945.0,948.0,946.0,943.0,943.0,942.0,943.0,945.0,945.0,943.0,942.0,943.0,943.0,946.0,944.0,943.0,940.0,939.0,943.0,944.0,945.0,945.0,944.0,944.0,944.0,947.0,946.0,945.0,945.0,944.0,947.0,947.0,945.0,945.0,944.0,944.0,945.0,946.0,945.0,944.0,942.0,942.0,943.0,946.0,947.0,945.0,943.0,942.0,944.0,948.0,947.0,946.0,945.0,945.0,947.0,947.0,946.0,944.0,945.0,944.0,946.0,947.0,945.0,943.0,943.0,940.0,942.0,945.0,943.0,942.0,939.0,0.0,
957,957,957,955,953,953,954,957,956,954,952,955,959,957,955,954,956,959,963,966,971,973,969,972,974,971,971,973,974,974,979,979,976,974,974,974,975,975,974,975,973,974,975,971,971,969,969,975,982,983,977,969,964,966,964,958,955,954,951,953,956,954,952,949,950,950,952,951,949,948,947,952,952,952,952,948,946,945,949,943,934,926,920,915,910,904,911,928,957,990,1032,1087,1138,1170,1178.0,1155.0,1100.0,1024.0,962.0,927.0,920.0,929.0,940.0,942.0,939.0,939.0,938.0,938.0,942.0,940.0,936.0,937.0,935.0,936.0,939.0,941.0,939.0,936.0,933.0,934.0,938.0,939.0,938.0,935.0,936.0,938.0,941.0,941.0,938.0,936.0,935.0,937.0,941.0,940.0,936.0,937.0,935.0,939.0,940.0,938.0,938.0,936.0,937.0,937.0,939.0,938.0,936.0,936.0,935.0,936.0,939.0,938.0,938.0,937.0,937.0,937.0,938.0,937.0,937.0,938.0,939.0,940.0,943.0,940.0,938.0,937.0,935.0,939.0,942.0,940.0,937.0,936.0,935.0,937.0,938.0,938.0,936.0,932.0,929.0,934.0,936.0,936.0,936.0,929.0,932.0,934.0,936.0,936.0,0.0,
945,945,944,941,940,938,940,941,942,942,941,943,946,949,947,946,946,946,947,948,951,950,950,950,955,957,956,956,956,957,960,963,963,964,962,959,961,962,960,959,961,960,959,960,959,958,960,963,963,960,952,945,946,941,942,943,940,937,935,933,937,939,940,937,938,933,935,938,938,937,933,934,936,938,941,935,931,934,935,934,925,917,913,909,903,896,898,909,932,959,994,1041,1094,1141,1171.0,1178.0,1150.0,1092.0,1015.0,952.0,920.0,910.0,913.0,922.0,925.0,926.0,924.0,926.0,929.0,928.0,930.0,928.0,927.0,928.0,927.0,930.0,929.0,930.0,928.0,927.0,932.0,933.0,930.0,930.0,929.0,927.0,931.0,933.0,934.0,932.0,932.0,931.0,930.0,932.0,930.0,927.0,923.0,924.0,927.0,928.0,927.0,928.0,928.0,927.0,929.0,931.0,931.0,930.0,930.0,929.0,930.0,930.0,929.0,929.0,926.0,928.0,927.0,929.0,929.0,926.0,925.0,925.0,927.0,928.0,930.0,926.0,926.0,926.0,927.0,930.0,929.0,927.0,927.0,924.0,928.0,929.0,929.0,928.0,924.0,923.0,925.0,927.0,926.0,920.0,919.0,918.0,919.0,921.0,0.0,
944,944,942,943,943,946,946,947,947,944,948,948,955,956,958,959,960,961,962,962,962,961,963,969,968,969,970,967,965,965,967,966,962,960,962,964,967,964,961,962,966,969,972,968,960,958,954,954,953,949,947,944,938,941,945,947,943,941,942,942,944,944,942,943,941,944,945,944,943,942,943,945,945,944,943,942,940,940,941,928,920,916,915,914,905,901,906,926,955,986,1026,1074,1127,1169,1194.0,1199.0,1162.0,1088.0,1002.0,943.0,918.0,921.0,933.0,938.0,940.0,940.0,936.0,938.0,938.0,939.0,938.0,935.0,934.0,936.0,940.0,939.0,937.0,938.0,935.0,938.0,941.0,939.0,940.0,936.0,935.0,938.0,940.0,940.0,939.0,938.0,935.0,940.0,943.0,940.0,938.0,936.0,935.0,938.0,941.0,938.0,936.0,936.0,936.0,938.0,938.0,940.0,938.0,936.0,934.0,936.0,940.0,939.0,940.0,938.0,936.0,939.0,940.0,944.0,942.0,940.0,938.0,940.0,943.0,942.0,938.0,936.0,937.0,940.0,941.0,938.0,938.0,937.0,937.0,937.0,939.0,937.0,937.0,936.0,936.0,937.0,939.0,939.0,935.0,936.0,933.0,935.0,936.0,936.0,0.0,
959,958,958,957,957,955,956,958,958,955,954,956,961,963,967,967,968,967,970,975,973,968,967,966,970,973,975,976,972,974,977,978,979,975,975,973,974,973,976,974,973,969,973,976,979,980,978,972,967,966,965,960,955,954,955,956,955,951,950,949,951,951,951,952,950,949,949,949,951,949,949,947,950,952,953,950,949,944,940,935,928,923,916,909,905,907,920,943,967,995,1034,1087,1141,1178,1194.0,1187.0,1144.0,1080.0,1004.0,950.0,925.0,924.0,933.0,943.0,946.0,944.0,942.0,942.0,946.0,949.0,947.0,945.0,941.0,942.0,944.0,945.0,947.0,946.0,943.0,942.0,946.0,945.0,946.0,944.0,939.0,942.0,945.0,946.0,944.0,944.0,943.0,942.0,945.0,945.0,946.0,943.0,944.0,945.0,945.0,947.0,946.0,945.0,943.0,944.0,947.0,949.0,947.0,946.0,943.0,944.0,946.0,944.0,943.0,942.0,944.0,941.0,943.0,946.0,947.0,944.0,942.0,942.0,946.0,948.0,950.0,947.0,945.0,946.0,949.0,947.0,946.0,946.0,945.0,942.0,945.0,948.0,944.0,944.0,944.0,942.0,942.0,944.0,942.0,944.0,941.0,939.0,941.0,944.0,0.0,
954,955,953,955,958,959,957,957,955,958,959,959,958,958,962,966,970,971,968,964,965,970,976,977,977,977,977,978,981,980,978,978,973,975,977,976,975,970,969,970,972,975,978,979,979,984,984,978,971,965,963,962,962,960,956,955,952,953,956,956,954,952,952,951,952,949,948,947,948,949,950,949,950,949,947,951,950,947,944,936,932,929,929,920,908,903,915,935,961,988,1024,1071,1123,1163,1182.0,1176.0,1136.0,1073.0,1002.0,952.0,929.0,922.0,926.0,931.0,936.0,937.0,941.0,939.0,941.0,939.0,937.0,945.0,947.0,947.0,944.0,942.0,940.0,942.0,943.0,942.0,944.0,940.0,937.0,940.0,943.0,943.0,941.0,941.0,940.0,940.0,944.0,942.0,941.0,939.0,938.0,941.0,941.0,942.0,941.0,940.0,940.0,941.0,945.0,944.0,943.0,941.0,941.0,940.0,941.0,939.0,939.0,937.0,937.0,939.0,941.0,941.0,940.0,939.0,938.0,940.0,942.0,942.0,942.0,941.0,939.0,943.0,944.0,944.0,942.0,941.0,941.0,943.0,945.0,947.0,945.0,945.0,941.0,945.0,946.0,945.0,943.0,941.0,939.0,941.0,941.0,941.0,939.0,937.0,0.0,
954,952,950,949,950,951,952,953,952,953,950,953,956,955,953,952,951,953,958,958,960,963,964,969,970,967,965,967,970,972,974,975,975,973,971,974,975,971,971,969,966,967,967,967,966,968,969,967,967,964,958,954,949,952,954,953,952,949,951,952,951,948,948,946,944,946,948,948,948,944,944,946,948,948,948,946,946,947,949,945,938,930,926,923,917,908,906,921,947,979,1012,1055,1107,1151,1179.0,1188.0,1166.0,1099.0,1022.0,964.0,932.0,922.0,925.0,933.0,939.0,942.0,938.0,942.0,945.0,946.0,944.0,942.0,939.0,941.0,942.0,942.0,941.0,940.0,939.0,941.0,942.0,942.0,942.0,941.0,938.0,938.0,939.0,940.0,939.0,938.0,937.0,939.0,939.0,939.0,937.0,936.0,937.0,939.0,940.0,940.0,941.0,939.0,938.0,940.0,941.0,938.0,940.0,937.0,937.0,939.0,939.0,938.0,938.0,934.0,936.0,938.0,943.0,940.0,937.0,938.0,937.0,937.0,940.0,939.0,937.0,939.0,940.0,941.0,942.0,942.0,938.0,938.0,936.0,937.0,939.0,938.0,933.0,933.0,930.0,931.0,931.0,931.0,930.0,926.0,927.0,930.0,931.0,931.0,0.0,
953,951,950,952,953,953,953,952,952,952,957,957,953,952,951,955,957,955,952,952,952,955,963,965,967,967,967,969,971,972,976,975,973,978,978,975,973,972,973,972,973,973,971,970,968,967,969,975,977,977,970,966,966,962,958,954,953,953,953,952,950,947,947,950,950,950,949,947,945,950,952,951,950,949,949,950,951,950,943,933,924,922,920,910,905,913,935,969,1003,1044,1096,1150,1190,1221,1228.0,1205.0,1155.0,1098.0,1045.0,1008.0,980.0,956.0,937.0,922.0,910.0,908.0,920.0,932.0,941.0,941.0,939.0,941.0,943.0,941.0,940.0,937.0,937.0,938.0,940.0,939.0,939.0,937.0,937.0,941.0,943.0,942.0,941.0,942.0,942.0,941.0,944.0,943.0,940.0,938.0,937.0,940.0,943.0,939.0,938.0,938.0,939.0,941.0,942.0,943.0,940.0,939.0,938.0,941.0,943.0,943.0,942.0,940.0,939.0,942.0,944.0,941.0,944.0,942.0,942.0,944.0,946.0,946.0,943.0,942.0,939.0,941.0,943.0,944.0,942.0,939.0,940.0,941.0,943.0,942.0,944.0,940.0,941.0,939.0,943.0,940.0,939.0,938.0,936.0,941.0,940.0,939.0,940.0,936.0,0.0,
954,955,951,952,952,953,951,952,952,951,951,954,955,953,953,952,954,957,956,957,957,957,962,966,970,968,965,965,967,970,972,973,973,972,974,973,975,976,974,972,972,973,972,971,970,969,971,972,974,976,978,971,967,965,957,958,954,950,952,953,952,951,949,948,952,952,951,951,949,948,950,948,949,949,946,947,949,948,947,941,930,923,920,917,909,905,918,941,974,1011,1057,1112,1158,1192,1211.0,1222.0,1206.0,1162.0,1100.0,1024.0,963.0,929.0,921.0,923.0,930.0,935.0,941.0,941.0,940.0,940.0,939.0,937.0,941.0,942.0,942.0,941.0,941.0,940.0,942.0,942.0,944.0,942.0,939.0,937.0,940.0,941.0,943.0,942.0,938.0,939.0,939.0,944.0,941.0,942.0,941.0,939.0,941.0,943.0,943.0,942.0,942.0,942.0,942.0,946.0,947.0,946.0,943.0,942.0,945.0,946.0,945.0,943.0,944.0,943.0,942.0,945.0,946.0,945.0,944.0,943.0,944.0,946.0,946.0,943.0,943.0,941.0,944.0,946.0,945.0,944.0,941.0,942.0,946.0,947.0,944.0,944.0,940.0,943.0,944.0,944.0,945.0,944.0,940.0,937.0,941.0,945.0,944.0,940.0,0.0,
946,946,947,946,947,947,946,946,951,953,951,950,949,949,951,950,953,955,958,960,964,964,960,959,962,963,966,969,969,966,967,969,968,967,964,964,965,969,969,966,964,965,966,971,968,962,957,953,948,945,948,944,942,941,941,943,947,944,943,939,942,945,949,947,945,944,944,946,946,946,944,942,942,942,939,939,940,936,935,933,928,923,918,911,900,898,907,926,950,974,1008,1060,1115,1154,1177.0,1171.0,1132.0,1063.0,997.0,947.0,919.0,911.0,918.0,926.0,931.0,933.0,932.0,930.0,931.0,932.0,935.0,937.0,936.0,936.0,934.0,933.0,935.0,933.0,932.0,933.0,932.0,935.0,937.0,936.0,934.0,933.0,934.0,932.0,935.0,934.0,934.0,933.0,930.0,932.0,933.0,935.0,932.0,933.0,933.0,933.0,932.0,931.0,931.0,929.0,931.0,934.0,935.0,935.0,933.0,932.0,933.0,933.0,936.0,936.0,934.0,933.0,932.0,935.0,937.0,935.0,933.0,931.0,927.0,929.0,933.0,935.0,935.0,934.0,933.0,934.0,937.0,935.0,934.0,934.0,932.0,934.0,936.0,935.0,932.0,929.0,929.0,931.0,932.0,930.0,928.0,924.0,924.0,927.0,0.0,
950,947,944,946,947,951,951,947,948,947,947,951,952,953,954,954,960,962,964,963,963,963,966,969,967,969,970,970,971,973,971,967,967,964,965,968,969,966,963,962,968,975,974,969,964,959,957,955,952,952,950,947,946,947,947,947,946,944,943,945,947,945,944,942,942,946,945,945,944,944,946,950,950,948,948,945,947,948,944,939,932,925,921,920,912,905,911,931,962,991,1030,1083,1134,1175,1196.0,1187.0,1139.0,1065.0,988.0,936.0,919.0,920.0,929.0,936.0,938.0,936.0,938.0,941.0,943.0,940.0,939.0,937.0,939.0,941.0,941.0,940.0,940.0,939.0,941.0,944.0,942.0,944.0,940.0,941.0,941.0,944.0,942.0,942.0,939.0,937.0,940.0,942.0,943.0,940.0,937.0,939.0,941.0,940.0,941.0,942.0,938.0,938.0,940.0,943.0,944.0,942.0,941.0,941.0,943.0,944.0,944.0,942.0,943.0,941.0,944.0,944.0,941.0,940.0,943.0,940.0,941.0,942.0,942.0,940.0,939.0,941.0,941.0,942.0,943.0,942.0,938.0,939.0,942.0,943.0,943.0,942.0,940.0,939.0,939.0,941.0,939.0,938.0,937.0,935.0,936.0,934.0,934.0,932.0,0.0,
961,960,960,958,959,959,959,960,957,958,962,965,965,962,962,962,966,967,970,972,974,972,971,974,975,974,975,975,979,985,984,983,980,979,980,981,977,980,978,977,978,978,979,980,985,988,987,982,976,973,971,967,964,964,964,961,957,956,956,961,959,958,956,954,958,960,957,958,956,955,957,956,958,956,954,954,953,954,953,945,938,929,927,925,914,910,915,936,964,997,1032,1081,1137,1185,1213.0,1214.0,1172.0,1092.0,1009.0,950.0,928.0,931.0,943.0,950.0,951.0,948.0,949.0,952.0,953.0,950.0,949.0,949.0,951.0,952.0,952.0,949.0,946.0,946.0,947.0,949.0,948.0,950.0,947.0,948.0,948.0,950.0,950.0,947.0,945.0,944.0,947.0,951.0,949.0,947.0,947.0,946.0,947.0,949.0,948.0,948.0,946.0,947.0,948.0,949.0,946.0,946.0,948.0,948.0,951.0,954.0,951.0,951.0,951.0,949.0,951.0,950.0,949.0,949.0,948.0,947.0,948.0,951.0,952.0,952.0,950.0,949.0,951.0,953.0,953.0,951.0,951.0,951.0,950.0,953.0,951.0,952.0,951.0,950.0,952.0,955.0,956.0,952.0,951.0,949.0,951.0,952.0,951.0,950.0,0.0,
964,967,965,963,963,964,965,965,963,962,960,961,964,965,964,965,964,968,972,974,976,975,976,978,980,982,985,983,985,987,988,989,987,983,981,983,983,984,983,979,978,979,985,990,989,981,975,974,976,972,968,963,961,961,962,963,962,960,957,960,963,962,962,958,956,958,962,959,957,956,955,957,959,959,956,956,955,951,947,940,935,930,922,917,925,945,969,994,1030,1080,1132,1174,1202,1218,1228.0,1223.0,1198.0,1157.0,1101.0,1042.0,988.0,950.0,931.0,929.0,933.0,936.0,945.0,950.0,952.0,954.0,953.0,953.0,952.0,953.0,953.0,954.0,954.0,951.0,951.0,952.0,953.0,953.0,950.0,949.0,948.0,950.0,950.0,952.0,951.0,947.0,946.0,951.0,952.0,952.0,953.0,951.0,949.0,951.0,952.0,952.0,952.0,950.0,950.0,952.0,954.0,953.0,952.0,951.0,948.0,952.0,954.0,952.0,954.0,948.0,947.0,950.0,953.0,953.0,953.0,949.0,950.0,955.0,955.0,954.0,953.0,951.0,953.0,956.0,958.0,956.0,953.0,951.0,952.0,957.0,956.0,954.0,951.0,950.0,950.0,950.0,951.0,952.0,953.0,949.0,948.0,950.0,952.0,951.0,0.0,
957,953,953,954,954,956,953,949,951,953,955,952,954,953,955,957,961,965,965,963,963,966,968,971,971,971,971,976,978,977,974,974,973,973,972,971,970,970,971,972,969,970,972,974,972,969,966,965,960,956,950,952,950,947,946,944,947,947,948,950,948,947,948,949,949,948,945,944,945,948,950,950,949,945,944,947,947,947,944,938,935,931,929,922,909,903,911,934,963,996,1036,1084,1134,1172,1186.0,1167.0,1108.0,1031.0,964.0,931.0,920.0,926.0,934.0,939.0,935.0,937.0,937.0,936.0,938.0,939.0,938.0,942.0,941.0,941.0,940.0,935.0,933.0,937.0,939.0,940.0,938.0,937.0,937.0,937.0,939.0,938.0,938.0,935.0,934.0,935.0,938.0,937.0,938.0,937.0,938.0,939.0,940.0,941.0,941.0,936.0,935.0,937.0,939.0,938.0,936.0,931.0,932.0,934.0,935.0,934.0,933.0,935.0,934.0,936.0,938.0,941.0,939.0,939.0,935.0,938.0,938.0,935.0,935.0,933.0,935.0,934.0,936.0,937.0,936.0,934.0,932.0,934.0,936.0,936.0,934.0,933.0,930.0,930.0,929.0,927.0,929.0,929.0,927.0,928.0,929.0,927.0,926.0,923.0,0.0,
952,949,947,947,946,946,949,949,949,947,945,944,948,949,949,946,947,951,957,957,961,959,960,963,963,965,966,966,966,967,969,967,965,961,963,964,967,967,966,963,962,963,963,968,967,966,961,957,955,955,949,949,948,947,946,947,946,946,944,940,943,943,943,941,940,940,940,944,941,940,939,941,943,943,942,939,934,928,922,919,914,902,895,898,911,927,945,962,978,1005,1038,1084,1133,1169,1187.0,1186.0,1150.0,1078.0,996.0,943.0,921.0,917.0,927.0,937.0,938.0,938.0,937.0,940.0,939.0,941.0,940.0,936.0,935.0,938.0,937.0,939.0,938.0,936.0,935.0,938.0,938.0,936.0,936.0,935.0,933.0,937.0,937.0,939.0,939.0,937.0,934.0,938.0,940.0,940.0,939.0,935.0,936.0,937.0,939.0,938.0,937.0,937.0,938.0,942.0,940.0,941.0,940.0,936.0,938.0,940.0,940.0,941.0,938.0,936.0,937.0,939.0,939.0,939.0,942.0,939.0,938.0,939.0,943.0,941.0,941.0,940.0,938.0,940.0,940.0,939.0,938.0,937.0,935.0,935.0,936.0,936.0,934.0,932.0,931.0,933.0,934.0,935.0,931.0,931.0,930.0,928.0,932.0,934.0,0.0,
950,951,951,952,950,950,950,950,952,952,950,951,954,955,956,957,956,961,964,967,967,966,964,964,967,969,972,972,971,970,971,973,972,971,968,965,969,968,970,966,967,969,974,979,973,967,963,960,956,956,951,949,944,944,946,946,948,947,945,944,943,945,946,947,943,942,944,944,945,945,943,944,945,946,943,940,937,933,927,924,923,920,917,913,907,908,918,941,967,1000,1040,1088,1139,1175,1185.0,1168.0,1118.0,1048.0,982.0,939.0,927.0,929.0,937.0,942.0,943.0,937.0,939.0,938.0,940.0,941.0,939.0,937.0,935.0,935.0,935.0,936.0,939.0,938.0,936.0,937.0,937.0,936.0,936.0,936.0,934.0,932.0,936.0,939.0,939.0,939.0,938.0,936.0,937.0,939.0,940.0,936.0,937.0,936.0,935.0,937.0,937.0,936.0,934.0,933.0,936.0,937.0,938.0,937.0,937.0,936.0,936.0,936.0,935.0,937.0,937.0,935.0,936.0,938.0,939.0,938.0,936.0,935.0,937.0,938.0,940.0,938.0,937.0,933.0,936.0,936.0,936.0,936.0,935.0,935.0,937.0,937.0,939.0,939.0,936.0,936.0,934.0,937.0,936.0,933.0,933.0,931.0,934.0,934.0,0.0,
947,950,950,950,950,948,948,947,949,948,948,947,946,951,951,953,949,952,953,957,961,963,964,962,961,966,970,970,970,966,967,969,971,970,967,964,962,965,967,967,965,962,961,967,972,971,964,955,954,954,955,950,945,946,944,946,945,944,944,941,938,939,943,940,938,939,940,942,943,944,943,939,939,941,941,940,938,929,923,917,917,907,896,894,907,928,946,956,971,989,1016,1054,1099,1136,1165.0,1178.0,1169.0,1122.0,1052.0,978.0,928.0,911.0,916.0,928.0,934.0,936.0,934.0,934.0,934.0,935.0,938.0,938.0,934.0,932.0,931.0,932.0,933.0,934.0,934.0,933.0,932.0,934.0,935.0,934.0,933.0,931.0,930.0,933.0,935.0,933.0,933.0,933.0,933.0,937.0,937.0,939.0,935.0,936.0,934.0,934.0,933.0,934.0,933.0,931.0,932.0,932.0,935.0,935.0,932.0,930.0,931.0,933.0,937.0,936.0,934.0,933.0,931.0,931.0,931.0,934.0,935.0,935.0,935.0,935.0,938.0,938.0,937.0,932.0,934.0,936.0,939.0,936.0,933.0,932.0,929.0,930.0,933.0,933.0,930.0,927.0,927.0,930.0,930.0,930.0,928.0,926.0,926.0,929.0,0.0,
943,942,940,940,941,944,943,943,940,943,941,944,946,945,945,945,946,948,951,955,954,955,957,956,956,955,955,957,961,966,969,969,967,964,965,964,962,963,963,962,962,960,965,965,965,962,958,957,956,951,949,944,943,944,941,941,939,939,938,943,944,944,940,939,938,941,941,938,937,938,939,940,939,939,938,939,939,939,938,935,929,919,916,917,910,903,900,913,940,967,998,1043,1095,1144,1179.0,1190.0,1161.0,1096.0,1018.0,955.0,925.0,917.0,918.0,926.0,929.0,928.0,931.0,930.0,931.0,933.0,931.0,928.0,928.0,934.0,933.0,932.0,930.0,929.0,932.0,934.0,935.0,931.0,930.0,931.0,935.0,935.0,935.0,934.0,933.0,931.0,934.0,934.0,935.0,933.0,931.0,931.0,931.0,935.0,935.0,934.0,931.0,930.0,931.0,933.0,933.0,932.0,933.0,932.0,932.0,935.0,935.0,935.0,934.0,932.0,936.0,937.0,938.0,936.0,934.0,934.0,936.0,937.0,938.0,936.0,933.0,932.0,937.0,936.0,937.0,936.0,935.0,933.0,932.0,936.0,935.0,933.0,932.0,932.0,934.0,933.0,934.0,932.0,931.0,929.0,931.0,930.0,931.0,929.0,0.0,
956,953,956,958,958,955,955,955,958,963,965,967,969,970,971,975,975,974,972,972,973,977,978,977,978,978,979,981,981,977,974,973,973,977,976,976,973,971,976,983,988,982,976,971,969,967,964,959,956,956,954,956,955,955,954,954,956,958,958,958,955,954,957,957,961,957,956,955,956,958,959,956,957,955,956,958,957,953,947,939,932,931,926,919,910,910,927,948,979,1011,1046,1096,1152,1192,1216.0,1218.0,1182.0,1112.0,1029.0,967.0,939.0,932.0,937.0,945.0,951.0,953.0,950.0,950.0,950.0,949.0,948.0,949.0,951.0,949.0,946.0,947.0,948.0,948.0,952.0,950.0,948.0,946.0,950.0,952.0,952.0,949.0,947.0,946.0,947.0,949.0,951.0,948.0,946.0,948.0,949.0,951.0,951.0,949.0,948.0,947.0,950.0,951.0,953.0,952.0,949.0,946.0,949.0,952.0,953.0,949.0,948.0,950.0,952.0,952.0,952.0,951.0,949.0,950.0,951.0,952.0,951.0,951.0,949.0,950.0,949.0,951.0,951.0,951.0,950.0,946.0,949.0,951.0,950.0,950.0,949.0,950.0,951.0,951.0,952.0,952.0,948.0,949.0,953.0,954.0,954.0,951.0,949.0,949.0,0.0,
967,964,964,966,967,969,967,966,965,968,968,970,970,974,975,979,981,983,983,981,982,985,988,989,988,987,986,988,991,992,988,988,984,985,987,986,986,987,984,985,985,982,984,986,988,993,988,982,977,975,973,972,970,970,966,963,962,964,969,966,966,965,964,961,963,964,962,964,962,964,963,966,964,963,961,964,963,959,952,941,934,933,926,918,923,938,963,988,1012,1040,1081,1121,1162,1197,1215.0,1223.0,1200.0,1141.0,1051.0,982.0,944.0,939.0,943.0,952.0,957.0,957.0,956.0,957.0,956.0,954.0,953.0,954.0,954.0,954.0,953.0,950.0,950.0,953.0,954.0,953.0,956.0,954.0,951.0,953.0,955.0,955.0,955.0,954.0,954.0,956.0,958.0,959.0,958.0,955.0,954.0,957.0,959.0,958.0,959.0,956.0,956.0,957.0,958.0,958.0,958.0,955.0,956.0,957.0,955.0,957.0,957.0,954.0,955.0,957.0,957.0,957.0,956.0,955.0,955.0,955.0,957.0,956.0,957.0,953.0,953.0,955.0,957.0,957.0,956.0,954.0,954.0,955.0,958.0,957.0,954.0,954.0,952.0,954.0,958.0,956.0,956.0,955.0,954.0,957.0,955.0,957.0,955.0,953.0,0.0,
968,970,971,971,970,967,968,969,970,969,971,969,969,970,972,971,971,972,973,975,981,984,982,980,982,985,989,989,992,989,991,992,993,993,990,987,986,989,990,990,989,985,983,987,993,997,992,985,980,981,981,975,970,966,962,965,967,967,967,965,963,965,965,965,964,963,963,965,966,965,964,961,960,962,963,964,964,963,961,957,950,943,938,933,922,917,921,936,960,983,1014,1065,1122,1167,1190.0,1187.0,1148.0,1078.0,1004.0,953.0,933.0,933.0,944.0,953.0,954.0,955.0,953.0,951.0,950.0,953.0,956.0,955.0,954.0,953.0,951.0,952.0,951.0,952.0,951.0,951.0,950.0,950.0,953.0,953.0,953.0,952.0,951.0,956.0,956.0,955.0,954.0,951.0,951.0,954.0,956.0,954.0,954.0,950.0,952.0,953.0,954.0,955.0,953.0,950.0,950.0,952.0,953.0,953.0,955.0,952.0,952.0,953.0,955.0,956.0,956.0,952.0,953.0,953.0,954.0,954.0,954.0,952.0,954.0,956.0,957.0,956.0,953.0,951.0,952.0,951.0,953.0,953.0,954.0,952.0,949.0,951.0,953.0,950.0,949.0,949.0,948.0,949.0,948.0,951.0,950.0,946.0,943.0,944.0,0.0,
963,964,965,966,964,967,965,965,965,965,965,963,962,964,966,966,966,964,964,970,975,976,974,974,974,979,982,985,986,986,986,986,985,987,987,982,984,984,987,984,981,978,976,982,989,989,981,975,971,971,970,966,964,964,959,961,963,966,967,967,967,969,970,968,965,962,958,960,963,964,961,961,959,961,960,958,958,959,959,960,957,951,944,938,929,923,921,934,954,982,1012,1058,1113,1167,1201.0,1209.0,1176.0,1107.0,1031.0,974.0,942.0,932.0,936.0,947.0,954.0,954.0,956.0,953.0,952.0,954.0,955.0,954.0,954.0,950.0,951.0,954.0,956.0,956.0,955.0,953.0,950.0,953.0,955.0,956.0,955.0,953.0,952.0,955.0,954.0,955.0,956.0,952.0,951.0,953.0,953.0,954.0,955.0,952.0,951.0,953.0,954.0,955.0,954.0,953.0,954.0,952.0,955.0,955.0,955.0,953.0,951.0,955.0,956.0,954.0,958.0,952.0,952.0,954.0,956.0,957.0,956.0,954.0,955.0,956.0,956.0,956.0,955.0,955.0,950.0,953.0,955.0,955.0,951.0,948.0,948.0,948.0,947.0,949.0,946.0,946.0,944.0,944.0,945.0,945.0,942.0,943.0,941.0,943.0,0.0,
972,973,975,975,974,971,969,977,975,972,972,973,974,976,978,975,975,974,981,986,988,986,986,987,990,989,992,993,994,993,998,997,996,994,994,991,992,992,994,992,989,987,992,996,1001,996,988,984,983,984,977,974,974,971,971,971,974,973,972,972,973,974,974,973,972,971,972,972,972,972,969,967,970,971,971,969,969,968,968,971,964,956,947,941,938,930,934,948,977,1008,1048,1100,1158,1204,1230.0,1220.0,1175.0,1098.0,1015.0,958.0,942.0,948.0,960.0,967.0,966.0,965.0,962.0,962.0,962.0,964.0,964.0,964.0,962.0,960.0,962.0,962.0,964.0,962.0,961.0,961.0,961.0,962.0,963.0,961.0,962.0,961.0,960.0,963.0,963.0,964.0,963.0,959.0,962.0,966.0,964.0,963.0,962.0,960.0,961.0,964.0,965.0,966.0,963.0,961.0,962.0,962.0,965.0,963.0,962.0,960.0,963.0,963.0,963.0,963.0,963.0,961.0,963.0,962.0,964.0,963.0,963.0,963.0,963.0,963.0,963.0,961.0,960.0,960.0,963.0,965.0,964.0,963.0,961.0,960.0,962.0,962.0,964.0,962.0,960.0,962.0,961.0,963.0,964.0,962.0,960.0,960.0,960.0,961.0,0.0,
980,982,981,980,978,981,982,983,981,982,980,977,983,981,983,983,982,985,990,993,991,991,990,993,999,998,998,1000,998,1000,1004,1004,1002,1000,996,997,998,1001,1000,995,995,996,1005,1008,1004,995,990,989,988,983,981,980,977,977,978,979,978,975,972,976,976,977,975,977,972,975,974,974,977,975,974,975,976,980,978,978,977,974,973,969,959,954,947,948,942,935,933,942,965,998,1031,1075,1130,1176,1206.0,1218.0,1195.0,1136.0,1057.0,992.0,955.0,949.0,958.0,968.0,970.0,969.0,967.0,969.0,970.0,972.0,970.0,968.0,965.0,968.0,968.0,969.0,966.0,965.0,965.0,966.0,968.0,969.0,967.0,967.0,966.0,968.0,968.0,970.0,968.0,965.0,964.0,966.0,970.0,969.0,970.0,967.0,965.0,969.0,970.0,972.0,971.0,969.0,968.0,968.0,969.0,973.0,970.0,970.0,968.0,968.0,970.0,970.0,970.0,967.0,967.0,967.0,971.0,969.0,968.0,966.0,965.0,968.0,967.0,969.0,970.0,970.0,968.0,969.0,969.0,971.0,970.0,968.0,965.0,967.0,969.0,970.0,967.0,967.0,965.0,966.0,967.0,968.0,967.0,966.0,962.0,963.0,964.0,965.0,0.0,
978,977,976,975,974,976,980,981,980,980,978,981,984,985,987,988,987,987,992,993,993,995,993,997,999,1000,999,995,995,995,997,997,994,993,994,995,993,990,989,991,992,996,1000,1003,1002,996,989,988,988,988,984,979,975,973,975,974,971,968,969,972,975,975,973,969,967,971,971,973,973,969,967,967,968,971,966,965,964,967,966,963,956,950,946,943,931,929,932,949,970,997,1036,1084,1137,1176,1202.0,1201.0,1174.0,1112.0,1042.0,983.0,952.0,940.0,943.0,952.0,958.0,958.0,956.0,958.0,961.0,966.0,963.0,963.0,960.0,964.0,966.0,963.0,962.0,963.0,961.0,959.0,961.0,962.0,962.0,961.0,961.0,961.0,961.0,963.0,961.0,961.0,960.0,961.0,961.0,960.0,959.0,958.0,957.0,958.0,959.0,962.0,962.0,962.0,960.0,963.0,962.0,961.0,960.0,959.0,956.0,958.0,960.0,960.0,961.0,961.0,960.0,963.0,960.0,960.0,958.0,958.0,957.0,960.0,964.0,964.0,961.0,961.0,962.0,963.0,965.0,964.0,964.0,962.0,960.0,961.0,960.0,959.0,960.0,958.0,957.0,960.0,961.0,961.0,958.0,957.0,954.0,955.0,956.0,956.0,0.0,
968,973,974,975,974,973,969,972,975,977,974,971,971,973,972,973,973,976,975,978,980,984,983,981,984,984,989,992,992,991,990,992,996,995,994,991,990,989,991,990,989,988,983,986,990,992,995,995,987,983,982,980,976,971,968,969,971,968,968,968,968,969,970,969,968,965,966,967,969,969,968,969,965,967,968,967,969,964,963,959,953,950,944,936,926,924,935,956,982,1006,1043,1094,1148,1192,1221.0,1224.0,1196.0,1134.0,1063.0,1005.0,966.0,947.0,938.0,935.0,938.0,941.0,945.0,954.0,956.0,957.0,959.0,960.0,961.0,959.0,959.0,960.0,961.0,962.0,961.0,959.0,957.0,961.0,963.0,963.0,961.0,960.0,960.0,960.0,962.0,960.0,964.0,962.0,960.0,960.0,963.0,963.0,961.0,962.0,961.0,962.0,965.0,964.0,965.0,963.0,960.0,963.0,964.0,964.0,964.0,962.0,960.0,964.0,963.0,966.0,965.0,963.0,958.0,961.0,962.0,965.0,962.0,961.0,960.0,964.0,962.0,964.0,965.0,961.0,960.0,962.0,963.0,963.0,964.0,964.0,963.0,964.0,963.0,964.0,964.0,964.0,960.0,959.0,961.0,963.0,962.0,957.0,954.0,955.0,0.0,
978,979,979,980,977,977,975,977,979,979,980,978,977,980,982,986,986,988,987,992,994,994,995,994,993,997,1000,1001,1001,1001,997,998,998,999,995,996,995,996,996,996,998,1001,1002,1001,998,995,993,990,986,986,986,987,983,980,977,977,979,976,977,977,977,977,978,978,976,974,975,975,977,975,976,976,973,973,974,976,974,973,968,965,960,952,949,943,933,929,941,964,992,1025,1065,1122,1178,1221,1233.0,1215.0,1153.0,1068.0,995.0,955.0,947.0,955.0,964.0,968.0,972.0,969.0,970.0,970.0,968.0,969.0,969.0,970.0,966.0,966.0,965.0,965.0,965.0,968.0,968.0,966.0,966.0,965.0,967.0,965.0,968.0,966.0,966.0,968.0,970.0,971.0,969.0,969.0,967.0,967.0,970.0,969.0,969.0,967.0,967.0,970.0,968.0,968.0,967.0,968.0,965.0,967.0,969.0,969.0,968.0,967.0,966.0,966.0,968.0,969.0,969.0,969.0,966.0,969.0,971.0,969.0,971.0,969.0,966.0,968.0,971.0,970.0,970.0,968.0,968.0,969.0,970.0,971.0,970.0,967.0,967.0,969.0,968.0,969.0,968.0,969.0,966.0,967.0,970.0,968.0,968.0,968.0,966.0,966.0,0.0,
977,978,981,980,979,980,978,978,981,980,980,981,980,983,987,990,993,992,992,992,994,996,998,997,999,1000,1001,1003,1001,1000,997,995,996,996,996,995,994,992,994,998,1004,1002,996,992,990,989,989,984,981,979,979,981,980,978,974,974,974,974,975,973,973,973,974,975,973,971,969,972,972,973,974,970,969,971,971,972,970,966,964,962,955,951,946,938,929,925,934,954,979,1005,1036,1082,1135,1180,1207.0,1209.0,1186.0,1129.0,1062.0,997.0,959.0,942.0,946.0,957.0,964.0,965.0,965.0,964.0,963.0,964.0,966.0,965.0,965.0,965.0,962.0,964.0,967.0,967.0,964.0,964.0,963.0,964.0,965.0,966.0,967.0,965.0,965.0,964.0,965.0,966.0,963.0,962.0,960.0,961.0,966.0,965.0,964.0,964.0,962.0,964.0,966.0,968.0,966.0,964.0,962.0,964.0,966.0,966.0,968.0,966.0,960.0,963.0,964.0,965.0,963.0,962.0,962.0,963.0,962.0,966.0,965.0,966.0,964.0,965.0,966.0,967.0,965.0,964.0,964.0,966.0,967.0,968.0,967.0,965.0,965.0,965.0,967.0,968.0,967.0,967.0,964.0,968.0,965.0,967.0,966.0,966.0,963.0,963.0,0.0,
968,965,966,965,966,967,967,968,964,967,969,970,969,967,968,967,970,972,971,969,969,973,978,979,980,979,977,980,982,985,986,986,983,985,988,987,987,984,982,984,987,984,982,982,983,986,987,981,975,971,967,963,965,966,966,964,962,964,964,965,964,962,960,962,964,963,965,960,958,955,955,961,959,956,957,957,957,960,960,956,945,939,937,932,921,915,919,943,970,999,1038,1090,1139,1177,1194.0,1176.0,1116.0,1041.0,980.0,946.0,931.0,935.0,943.0,944.0,945.0,944.0,948.0,950.0,949.0,948.0,949.0,952.0,952.0,955.0,950.0,950.0,951.0,951.0,953.0,955.0,953.0,954.0,950.0,951.0,952.0,951.0,950.0,947.0,947.0,947.0,948.0,949.0,951.0,949.0,948.0,949.0,948.0,947.0,948.0,949.0,949.0,952.0,953.0,953.0,950.0,947.0,947.0,947.0,950.0,953.0,952.0,952.0,949.0,951.0,952.0,953.0,953.0,952.0,950.0,951.0,950.0,952.0,951.0,949.0,951.0,949.0,950.0,950.0,949.0,947.0,946.0,948.0,950.0,950.0,947.0,945.0,944.0,945.0,944.0,947.0,946.0,943.0,940.0,939.0,938.0,940.0,939.0,938.0,0.0,
959,960,959,959,964,963,961,959,960,962,963,965,964,961,961,961,963,963,964,964,963,969,972,974,974,972,970,973,978,980,982,979,976,979,981,981,978,976,978,977,979,979,977,972,972,975,980,980,976,968,965,963,962,960,960,955,955,956,960,959,958,958,956,955,956,957,955,956,954,955,957,958,955,955,953,953,955,955,954,949,942,934,930,928,920,913,918,942,971,1006,1048,1098,1149,1190,1206.0,1186.0,1125.0,1038.0,968.0,934.0,930.0,937.0,946.0,949.0,948.0,949.0,949.0,950.0,951.0,949.0,947.0,946.0,949.0,949.0,950.0,947.0,946.0,949.0,948.0,951.0,949.0,947.0,945.0,947.0,951.0,954.0,951.0,953.0,950.0,951.0,952.0,952.0,952.0,950.0,948.0,949.0,949.0,949.0,952.0,949.0,947.0,949.0,951.0,950.0,952.0,950.0,949.0,948.0,948.0,950.0,950.0,950.0,948.0,948.0,949.0,950.0,950.0,949.0,947.0,949.0,950.0,952.0,951.0,950.0,946.0,948.0,950.0,950.0,947.0,947.0,943.0,946.0,947.0,947.0,947.0,944.0,942.0,942.0,944.0,942.0,944.0,941.0,940.0,941.0,943.0,944.0,943.0,942.0,0.0,
964,965,967,967,967,967,964,966,967,969,965,966,963,966,967,966,968,963,962,969,974,977,979,979,977,979,981,985,985,983,985,986,987,986,987,982,980,982,981,982,981,980,978,982,988,993,995,990,984,978,978,975,977,972,969,968,968,970,967,966,961,963,963,962,964,962,960,961,959,962,960,958,956,959,959,960,959,958,956,956,950,942,937,931,926,918,924,940,971,1003,1045,1099,1160,1204,1222.0,1204.0,1138.0,1046.0,972.0,937.0,936.0,946.0,954.0,956.0,954.0,956.0,955.0,956.0,953.0,952.0,954.0,954.0,955.0,951.0,950.0,951.0,950.0,952.0,951.0,951.0,949.0,951.0,956.0,953.0,953.0,952.0,949.0,952.0,953.0,956.0,954.0,952.0,951.0,951.0,953.0,956.0,955.0,954.0,951.0,952.0,955.0,955.0,955.0,954.0,951.0,954.0,953.0,956.0,953.0,953.0,951.0,952.0,953.0,955.0,953.0,951.0,950.0,950.0,950.0,955.0,955.0,950.0,950.0,952.0,956.0,957.0,955.0,956.0,953.0,955.0,953.0,954.0,953.0,952.0,951.0,953.0,954.0,956.0,956.0,954.0,952.0,954.0,954.0,953.0,951.0,952.0,950.0,951.0,0.0,
967,966,966,967,965,963,962,964,968,967,965,964,966,964,969,970,971,972,972,977,983,983,981,977,981,985,987,989,988,988,986,989,989,986,985,982,985,986,986,985,982,981,985,990,989,983,978,975,975,975,972,971,967,965,965,965,963,963,961,961,960,961,963,963,961,960,961,961,965,961,962,959,959,961,963,963,961,958,958,956,951,939,934,930,922,917,926,944,970,1001,1043,1098,1153,1190,1199.0,1176.0,1117.0,1039.0,974.0,941.0,936.0,942.0,951.0,956.0,956.0,954.0,955.0,951.0,953.0,952.0,956.0,958.0,955.0,952.0,952.0,955.0,955.0,952.0,953.0,950.0,953.0,954.0,957.0,957.0,955.0,953.0,956.0,956.0,959.0,957.0,953.0,952.0,952.0,955.0,955.0,957.0,955.0,952.0,955.0,957.0,957.0,958.0,954.0,951.0,954.0,955.0,959.0,957.0,955.0,951.0,953.0,953.0,954.0,955.0,955.0,955.0,957.0,958.0,960.0,958.0,959.0,956.0,958.0,958.0,960.0,959.0,955.0,955.0,955.0,955.0,959.0,956.0,957.0,955.0,957.0,957.0,956.0,959.0,956.0,954.0,953.0,955.0,957.0,957.0,955.0,953.0,953.0,954.0,0.0,
964,968,964,962,960,961,963,964,962,964,963,966,967,972,973,974,973,975,976,978,980,979,980,982,984,986,985,983,978,982,984,983,981,981,979,979,979,982,982,984,984,980,980,978,976,973,970,968,968,967,964,962,960,962,961,960,962,960,958,958,959,961,960,960,957,955,957,960,957,957,954,956,958,959,956,958,953,955,955,951,946,939,935,927,918,915,922,938,962,988,1021,1066,1116,1161,1189.0,1201.0,1181.0,1127.0,1058.0,993.0,954.0,937.0,933.0,939.0,946.0,948.0,951.0,950.0,950.0,954.0,953.0,950.0,949.0,947.0,951.0,951.0,951.0,949.0,951.0,950.0,952.0,952.0,950.0,949.0,948.0,951.0,950.0,955.0,954.0,953.0,950.0,950.0,951.0,952.0,952.0,953.0,952.0,951.0,953.0,951.0,950.0,949.0,950.0,950.0,953.0,955.0,952.0,951.0,949.0,950.0,950.0,950.0,949.0,949.0,948.0,949.0,950.0,952.0,951.0,949.0,948.0,951.0,953.0,953.0,952.0,951.0,949.0,951.0,951.0,954.0,955.0,954.0,950.0,950.0,952.0,955.0,956.0,954.0,950.0,952.0,953.0,953.0,952.0,950.0,946.0,947.0,948.0,949.0,0.0,
963,962,964,965,968,966,966,963,965,964,967,969,969,970,971,977,979,978,977,975,976,978,983,981,984,984,987,986,987,985,984,981,980,981,985,985,981,980,979,985,990,989,984,977,974,974,972,970,965,963,964,966,967,966,962,958,960,960,961,962,958,959,961,960,963,961,959,955,957,958,962,960,957,957,956,958,960,960,957,950,943,936,937,930,920,915,924,947,977,1006,1041,1087,1141,1182,1205.0,1209.0,1178.0,1112.0,1033.0,971.0,942.0,930.0,935.0,941.0,949.0,953.0,953.0,953.0,952.0,951.0,951.0,952.0,954.0,955.0,952.0,948.0,948.0,949.0,952.0,950.0,950.0,947.0,950.0,951.0,950.0,953.0,950.0,948.0,950.0,952.0,954.0,954.0,951.0,950.0,950.0,953.0,952.0,953.0,950.0,949.0,951.0,952.0,952.0,954.0,951.0,949.0,951.0,953.0,952.0,953.0,951.0,950.0,951.0,953.0,955.0,956.0,953.0,952.0,949.0,951.0,955.0,952.0,951.0,951.0,951.0,952.0,953.0,953.0,955.0,951.0,954.0,953.0,955.0,956.0,954.0,952.0,952.0,954.0,955.0,954.0,953.0,951.0,950.0,951.0,952.0,952.0,948.0,946.0,0.0,
969,970,968,969,969,969,970,973,973,973,969,967,971,974,972,972,971,977,980,984,983,984,981,984,984,987,990,991,993,991,993,994,992,992,989,988,988,989,989,988,985,986,986,988,991,995,992,989,986,981,978,975,971,969,968,970,968,965,966,965,965,966,966,965,962,963,965,966,964,963,962,963,966,967,964,962,960,959,956,951,943,936,932,925,920,927,943,967,994,1026,1065,1122,1173,1209,1222.0,1214.0,1171.0,1097.0,1017.0,960.0,937.0,933.0,936.0,941.0,944.0,949.0,955.0,956.0,959.0,959.0,954.0,955.0,955.0,957.0,958.0,959.0,958.0,956.0,954.0,954.0,957.0,957.0,957.0,954.0,952.0,955.0,955.0,954.0,957.0,957.0,954.0,957.0,958.0,960.0,959.0,957.0,957.0,957.0,957.0,958.0,957.0,958.0,955.0,956.0,958.0,960.0,958.0,959.0,955.0,956.0,958.0,959.0,959.0,959.0,956.0,958.0,960.0,960.0,959.0,957.0,956.0,958.0,960.0,962.0,961.0,960.0,958.0,960.0,960.0,960.0,962.0,959.0,960.0,958.0,961.0,962.0,962.0,958.0,955.0,955.0,958.0,958.0,959.0,958.0,957.0,959.0,958.0,961.0,0.0,
969,968,969,972,971,967,968,968,972,972,971,971,971,968,971,972,970,970,971,977,981,985,984,983,982,986,989,990,991,990,990,993,993,993,989,989,988,987,990,989,991,989,985,983,986,994,996,992,985,980,979,976,972,969,967,967,968,969,970,969,967,966,967,966,966,962,962,963,965,967,968,965,962,960,963,966,965,961,960,957,951,950,942,937,932,923,921,932,953,981,1015,1064,1122,1170,1199.0,1200.0,1164.0,1091.0,1015.0,964.0,944.0,940.0,945.0,952.0,957.0,959.0,959.0,961.0,958.0,957.0,958.0,958.0,959.0,957.0,954.0,956.0,956.0,958.0,959.0,955.0,954.0,955.0,957.0,959.0,957.0,955.0,952.0,955.0,955.0,958.0,957.0,956.0,953.0,956.0,955.0,958.0,958.0,956.0,954.0,953.0,954.0,957.0,955.0,954.0,952.0,953.0,956.0,955.0,955.0,955.0,952.0,954.0,955.0,958.0,958.0,955.0,955.0,955.0,955.0,959.0,958.0,956.0,952.0,954.0,955.0,958.0,958.0,957.0,955.0,954.0,956.0,957.0,955.0,952.0,950.0,952.0,952.0,958.0,955.0,951.0,950.0,952.0,950.0,951.0,951.0,948.0,948.0,948.0,0.0,
960,960,956,956,958,956,957,954,952,955,956,958,959,958,956,955,957,959,960,956,959,963,966,970,969,968,967,968,973,977,975,977,975,976,976,976,975,974,972,974,974,974,970,970,971,976,977,976,971,964,959,958,955,957,957,951,948,952,953,955,953,952,949,952,952,954,953,951,949,950,952,954,952,947,944,948,951,953,954,948,941,934,929,929,923,912,908,922,948,977,1012,1057,1108,1159,1191.0,1195.0,1160.0,1087.0,1010.0,957.0,931.0,925.0,929.0,937.0,942.0,943.0,943.0,944.0,941.0,943.0,941.0,943.0,944.0,945.0,945.0,941.0,939.0,939.0,939.0,942.0,943.0,940.0,940.0,940.0,941.0,944.0,941.0,940.0,941.0,940.0,941.0,943.0,941.0,939.0,937.0,939.0,938.0,941.0,940.0,938.0,938.0,939.0,939.0,941.0,940.0,938.0,937.0,939.0,941.0,942.0,942.0,941.0,939.0,940.0,940.0,940.0,941.0,940.0,940.0,941.0,942.0,942.0,941.0,942.0,940.0,940.0,943.0,944.0,945.0,942.0,941.0,938.0,941.0,939.0,938.0,935.0,933.0,934.0,937.0,937.0,935.0,933.0,930.0,930.0,931.0,931.0,931.0,931.0,0.0,
956,955,954,952,955,957,959,958,954,954,956,956,957,956,953,955,957,957,961,961,962,965,968,969,970,969,970,970,975,979,979,978,976,975,977,976,976,974,972,971,973,973,971,970,971,974,979,984,980,973,967,963,964,962,958,955,954,951,953,954,954,952,950,949,953,954,954,951,950,951,952,954,953,951,948,951,951,951,949,939,929,925,918,912,909,921,944,977,1011,1051,1103,1156,1193,1216,1237.0,1248.0,1239.0,1195.0,1114.0,1025.0,955.0,926.0,926.0,937.0,946.0,947.0,944.0,944.0,947.0,946.0,942.0,944.0,944.0,945.0,946.0,944.0,942.0,943.0,943.0,944.0,943.0,942.0,939.0,940.0,941.0,944.0,945.0,944.0,941.0,943.0,944.0,948.0,944.0,946.0,942.0,943.0,943.0,945.0,945.0,945.0,940.0,941.0,943.0,947.0,947.0,945.0,944.0,941.0,943.0,946.0,946.0,943.0,940.0,941.0,943.0,946.0,943.0,944.0,942.0,943.0,944.0,946.0,946.0,944.0,944.0,942.0,943.0,944.0,944.0,943.0,941.0,942.0,944.0,945.0,945.0,942.0,940.0,941.0,941.0,942.0,942.0,941.0,939.0,940.0,940.0,942.0,942.0,942.0,0.0,
953,952,954,956,955,955,953,955,958,959,958,957,956,955,958,960,961,959,962,963,970,968,973,970,969,970,974,976,978,979,975,977,976,979,978,975,972,972,972,975,973,971,969,974,980,984,978,974,967,968,967,968,966,960,956,958,955,957,956,952,950,953,954,954,954,950,950,948,952,953,952,950,948,949,948,950,951,948,947,944,939,933,928,923,916,907,906,924,952,978,1008,1053,1113,1162,1195.0,1203.0,1171.0,1105.0,1021.0,954.0,924.0,921.0,930.0,939.0,943.0,946.0,945.0,945.0,943.0,944.0,944.0,944.0,943.0,943.0,941.0,944.0,942.0,945.0,944.0,943.0,940.0,941.0,943.0,945.0,944.0,942.0,940.0,940.0,945.0,945.0,946.0,942.0,941.0,943.0,944.0,945.0,946.0,944.0,941.0,943.0,945.0,944.0,945.0,944.0,941.0,942.0,943.0,946.0,944.0,944.0,943.0,942.0,945.0,945.0,946.0,946.0,944.0,943.0,947.0,945.0,947.0,944.0,943.0,944.0,946.0,946.0,947.0,945.0,943.0,945.0,945.0,948.0,947.0,948.0,945.0,943.0,946.0,947.0,947.0,944.0,943.0,944.0,945.0,948.0,948.0,945.0,944.0,944.0,0.0,
954,953,955,954,957,954,954,954,956,956,957,956,955,956,960,963,966,964,964,966,966,969,968,970,970,974,978,979,981,978,977,975,977,975,976,974,973,973,973,973,971,968,968,969,975,978,979,978,971,969,968,965,961,957,951,951,950,952,953,952,950,952,954,955,953,951,950,950,953,954,954,951,949,951,952,953,953,950,944,939,934,928,925,918,907,907,919,943,967,994,1029,1083,1136,1175,1191.0,1179.0,1139.0,1072.0,1005.0,955.0,932.0,925.0,927.0,936.0,942.0,945.0,944.0,945.0,944.0,946.0,948.0,947.0,947.0,944.0,944.0,944.0,945.0,943.0,945.0,940.0,942.0,941.0,942.0,943.0,942.0,942.0,941.0,944.0,945.0,947.0,947.0,945.0,943.0,941.0,943.0,945.0,946.0,943.0,941.0,941.0,943.0,945.0,944.0,941.0,940.0,939.0,940.0,944.0,944.0,943.0,941.0,939.0,941.0,947.0,947.0,945.0,943.0,944.0,943.0,944.0,946.0,944.0,942.0,942.0,944.0,946.0,949.0,945.0,945.0,944.0,944.0,944.0,943.0,944.0,944.0,944.0,944.0,945.0,944.0,942.0,939.0,937.0,940.0,942.0,941.0,938.0,937.0,938.0,0.0,
952,953,955,955,955,956,952,952,955,959,958,957,954,956,959,962,964,964,964,964,966,969,972,971,972,974,975,976,978,977,974,977,976,976,975,975,973,973,974,972,971,970,972,976,978,976,973,969,964,963,962,961,957,955,953,951,954,952,954,951,949,950,953,951,951,951,949,950,952,954,952,950,947,951,952,954,954,949,944,939,934,928,926,919,912,913,927,950,974,1001,1035,1084,1136,1176,1206.0,1216.0,1197.0,1152.0,1091.0,1032.0,987.0,958.0,938.0,922.0,921.0,925.0,931.0,936.0,942.0,943.0,944.0,946.0,946.0,947.0,947.0,946.0,946.0,950.0,948.0,947.0,946.0,946.0,948.0,947.0,948.0,946.0,945.0,945.0,946.0,947.0,948.0,948.0,944.0,946.0,949.0,947.0,947.0,946.0,945.0,946.0,948.0,948.0,949.0,948.0,945.0,948.0,949.0,950.0,949.0,948.0,945.0,947.0,947.0,949.0,948.0,948.0,945.0,946.0,946.0,948.0,948.0,947.0,946.0,949.0,950.0,950.0,951.0,948.0,945.0,947.0,947.0,947.0,949.0,948.0,946.0,949.0,949.0,949.0,949.0,949.0,942.0,944.0,946.0,947.0,946.0,945.0,941.0,941.0,0.0,
965,964,964,960,962,963,966,963,963,962,963,965,968,970,971,973,974,976,977,978,978,978,981,982,987,987,985,984,982,982,983,983,979,978,981,980,982,982,982,984,987,987,983,976,974,969,967,968,966,966,963,960,960,962,961,961,958,957,956,956,958,957,956,954,955,955,958,958,956,955,954,956,957,955,948,939,933,929,929,923,914,902,901,903,912,921,933,951,974,1002,1035,1082,1135,1179,1206.0,1215.0,1193.0,1133.0,1051.0,978.0,938.0,929.0,938.0,948.0,949.0,950.0,949.0,950.0,952.0,951.0,949.0,949.0,947.0,950.0,952.0,949.0,949.0,949.0,947.0,950.0,950.0,949.0,950.0,947.0,948.0,949.0,952.0,953.0,947.0,947.0,948.0,950.0,949.0,948.0,949.0,949.0,949.0,948.0,951.0,952.0,949.0,948.0,950.0,949.0,952.0,952.0,953.0,950.0,949.0,953.0,953.0,955.0,952.0,950.0,949.0,950.0,948.0,952.0,950.0,948.0,949.0,951.0,953.0,954.0,952.0,950.0,950.0,951.0,955.0,953.0,952.0,950.0,953.0,952.0,954.0,952.0,950.0,950.0,951.0,952.0,952.0,950.0,951.0,947.0,950.0,951.0,951.0,953.0,0.0,
961,963,960,958,960,960,956,960,961,960,959,961,961,964,968,969,969,968,975,977,976,974,976,977,981,983,985,984,982,982,981,983,983,979,976,975,975,978,979,980,977,974,974,977,982,986,985,980,976,975,971,966,960,958,961,961,959,956,955,956,956,960,958,957,957,955,956,958,958,955,954,952,956,956,957,955,953,951,948,943,936,930,926,917,911,914,930,954,979,1010,1059,1115,1160,1190,1196.0,1171.0,1116.0,1048.0,983.0,939.0,926.0,930.0,938.0,948.0,948.0,947.0,946.0,943.0,949.0,949.0,949.0,948.0,947.0,945.0,945.0,947.0,947.0,946.0,944.0,945.0,946.0,947.0,948.0,945.0,943.0,943.0,945.0,947.0,946.0,946.0,946.0,946.0,946.0,947.0,946.0,945.0,945.0,944.0,947.0,949.0,948.0,947.0,945.0,945.0,944.0,947.0,945.0,945.0,944.0,944.0,945.0,947.0,946.0,946.0,946.0,944.0,946.0,947.0,947.0,945.0,944.0,944.0,946.0,946.0,947.0,946.0,945.0,947.0,950.0,949.0,949.0,946.0,945.0,947.0,947.0,949.0,949.0,947.0,943.0,942.0,944.0,949.0,946.0,946.0,944.0,942.0,940.0,943.0,0.0,
952,951,950,948,944,945,945,945,947,949,951,952,953,953,951,949,948,951,954,952,956,956,957,960,965,965,965,964,966,967,970,970,973,972,969,971,971,970,967,968,965,966,966,963,964,966,970,972,980,977,974,966,961,959,957,950,947,945,943,943,944,944,946,943,941,946,945,943,942,940,941,943,945,941,941,938,938,940,942,939,933,927,923,924,918,906,903,917,939,971,1007,1049,1102,1147,1178.0,1188.0,1156.0,1081.0,999.0,942.0,916.0,914.0,922.0,931.0,933.0,935.0,935.0,937.0,940.0,940.0,939.0,936.0,934.0,934.0,937.0,936.0,936.0,934.0,932.0,934.0,937.0,936.0,937.0,933.0,930.0,934.0,935.0,936.0,936.0,935.0,934.0,934.0,936.0,936.0,936.0,936.0,933.0,935.0,936.0,937.0,935.0,933.0,931.0,933.0,936.0,934.0,934.0,933.0,935.0,936.0,937.0,935.0,936.0,935.0,934.0,935.0,937.0,936.0,935.0,932.0,934.0,936.0,938.0,938.0,936.0,934.0,934.0,937.0,936.0,936.0,935.0,932.0,931.0,932.0,937.0,936.0,935.0,932.0,932.0,932.0,934.0,932.0,930.0,930.0,928.0,931.0,933.0,929.0,0.0,
953,953,951,949,950,950,952,952,953,950,950,951,953,954,953,952,950,952,956,954,956,957,961,963,967,968,967,965,967,971,973,975,974,974,973,973,974,973,972,969,966,972,975,975,972,968,965,970,977,980,977,970,963,963,962,959,954,949,948,951,951,951,950,947,947,950,951,951,948,946,947,947,947,948,946,946,945,943,946,944,934,927,921,918,910,906,912,931,963,999,1045,1101,1159,1197,1215.0,1201.0,1148.0,1060.0,980.0,930.0,913.0,916.0,924.0,932.0,938.0,942.0,940.0,940.0,943.0,943.0,940.0,939.0,939.0,939.0,942.0,942.0,939.0,939.0,936.0,938.0,941.0,941.0,941.0,937.0,939.0,939.0,942.0,941.0,941.0,939.0,939.0,941.0,943.0,942.0,940.0,941.0,938.0,941.0,943.0,944.0,942.0,941.0,940.0,943.0,945.0,945.0,943.0,942.0,941.0,944.0,944.0,946.0,942.0,942.0,941.0,944.0,946.0,944.0,944.0,941.0,941.0,943.0,944.0,943.0,943.0,942.0,940.0,943.0,945.0,945.0,947.0,944.0,940.0,944.0,944.0,944.0,942.0,942.0,939.0,941.0,942.0,943.0,939.0,938.0,936.0,937.0,940.0,937.0,0.0,
958,956,959,961,958,958,958,957,959,961,961,960,958,957,960,961,963,962,963,963,968,973,975,975,974,973,977,982,981,982,981,981,983,986,987,986,984,982,981,984,984,979,980,978,980,978,980,982,985,985,983,978,973,969,964,961,962,960,959,959,957,958,959,961,958,955,955,954,958,957,956,955,954,954,955,956,955,954,951,946,940,935,932,927,916,910,921,947,974,1005,1042,1096,1150,1189,1213.0,1216.0,1181.0,1113.0,1035.0,975.0,937.0,919.0,921.0,926.0,936.0,946.0,950.0,948.0,947.0,946.0,951.0,952.0,952.0,950.0,948.0,947.0,949.0,952.0,952.0,951.0,949.0,945.0,950.0,953.0,948.0,951.0,947.0,950.0,953.0,952.0,953.0,951.0,951.0,950.0,950.0,952.0,953.0,953.0,952.0,948.0,951.0,953.0,953.0,953.0,951.0,951.0,951.0,954.0,955.0,952.0,953.0,950.0,952.0,953.0,953.0,952.0,952.0,951.0,953.0,954.0,954.0,952.0,952.0,950.0,953.0,956.0,954.0,953.0,953.0,952.0,955.0,954.0,953.0,952.0,952.0,952.0,951.0,954.0,953.0,952.0,950.0,950.0,950.0,953.0,953.0,953.0,951.0,950.0,0.0,
964,964,963,965,967,967,967,963,962,963,965,966,965,964,964,965,969,972,974,974,977,980,981,979,981,984,986,989,996,995,996,993,991,994,995,993,993,989,987,989,990,988,989,994,994,992,988,984,981,977,972,971,972,972,970,966,968,970,971,971,968,967,966,968,969,968,965,962,961,963,962,963,965,966,963,964,967,965,965,962,955,949,943,938,928,918,919,937,964,992,1027,1078,1137,1181,1203.0,1195.0,1148.0,1071.0,994.0,948.0,941.0,944.0,954.0,957.0,957.0,957.0,959.0,960.0,960.0,959.0,956.0,961.0,961.0,961.0,958.0,956.0,958.0,960.0,960.0,959.0,957.0,956.0,953.0,957.0,960.0,960.0,959.0,956.0,955.0,957.0,958.0,958.0,959.0,958.0,957.0,959.0,961.0,960.0,960.0,958.0,954.0,956.0,959.0,962.0,961.0,958.0,958.0,960.0,961.0,961.0,957.0,957.0,958.0,957.0,960.0,959.0,957.0,955.0,955.0,957.0,958.0,957.0,956.0,955.0,953.0,955.0,957.0,958.0,959.0,960.0,960.0,960.0,962.0,963.0,960.0,957.0,956.0,957.0,957.0,958.0,953.0,955.0,953.0,955.0,955.0,952.0,950.0,950.0,0.0,
962,961,963,963,960,954,960,963,961,960,964,959,963,964,965,967,967,968,967,974,974,972,976,975,980,982,984,980,982,980,983,986,985,984,981,978,978,981,978,975,975,971,972,978,980,981,977,972,971,970,967,962,957,957,959,958,957,953,953,949,952,955,952,951,951,948,952,952,952,950,948,948,952,954,956,951,947,945,942,938,936,930,918,908,905,918,940,965,991,1027,1083,1136,1179,1207,1212.0,1187.0,1143.0,1090.0,1039.0,999.0,973.0,956.0,946.0,933.0,923.0,915.0,912.0,920.0,935.0,940.0,940.0,939.0,939.0,941.0,942.0,942.0,942.0,942.0,941.0,941.0,943.0,941.0,939.0,938.0,936.0,938.0,943.0,943.0,942.0,940.0,940.0,938.0,939.0,943.0,944.0,942.0,937.0,938.0,937.0,941.0,938.0,941.0,941.0,939.0,939.0,942.0,942.0,940.0,937.0,939.0,939.0,940.0,938.0,938.0,936.0,936.0,939.0,940.0,940.0,939.0,937.0,937.0,939.0,941.0,940.0,940.0,940.0,939.0,938.0,940.0,941.0,940.0,940.0,940.0,939.0,940.0,940.0,940.0,936.0,935.0,936.0,936.0,937.0,933.0,931.0,932.0,930.0,931.0,0.0,
951,953,955,954,953,952,952,955,954,956,955,954,954,956,956,957,956,958,961,964,965,966,967,966,967,969,972,974,974,974,972,974,976,974,972,968,968,970,974,971,970,968,969,975,976,975,967,963,959,958,955,953,950,947,949,948,951,949,948,948,944,948,947,949,947,944,943,945,947,946,944,942,942,943,944,940,936,926,918,916,913,904,895,893,901,916,937,958,981,1006,1046,1095,1147,1185,1207.0,1209.0,1182.0,1117.0,1037.0,964.0,925.0,916.0,923.0,936.0,941.0,942.0,937.0,937.0,936.0,939.0,939.0,939.0,938.0,937.0,935.0,936.0,937.0,938.0,938.0,938.0,935.0,936.0,937.0,937.0,937.0,936.0,935.0,936.0,943.0,939.0,940.0,936.0,936.0,939.0,936.0,937.0,939.0,936.0,934.0,939.0,940.0,940.0,939.0,938.0,937.0,940.0,942.0,940.0,939.0,938.0,937.0,937.0,939.0,938.0,937.0,936.0,937.0,937.0,939.0,939.0,937.0,940.0,937.0,937.0,940.0,939.0,939.0,938.0,938.0,939.0,940.0,940.0,938.0,938.0,937.0,937.0,937.0,938.0,936.0,934.0,931.0,932.0,935.0,934.0,933.0,932.0,933.0,932.0,0.0,
949,948,949,948,952,949,951,949,951,953,953,952,951,953,959,962,964,965,964,961,966,968,969,969,969,969,971,972,974,970,969,968,968,968,968,966,966,969,969,969,969,966,963,966,970,976,975,968,963,960,959,957,952,950,947,945,947,948,950,948,945,944,944,946,945,943,943,944,946,947,946,946,942,942,945,946,944,940,934,927,920,918,914,904,897,901,917,943,969,1001,1041,1095,1150,1185,1202.0,1194.0,1144.0,1070.0,992.0,941.0,917.0,913.0,916.0,927.0,936.0,937.0,936.0,934.0,936.0,934.0,935.0,935.0,934.0,934.0,933.0,933.0,934.0,935.0,937.0,937.0,933.0,935.0,938.0,939.0,940.0,938.0,935.0,935.0,935.0,938.0,937.0,936.0,935.0,935.0,937.0,937.0,935.0,934.0,936.0,934.0,937.0,937.0,935.0,937.0,937.0,936.0,936.0,939.0,940.0,938.0,937.0,934.0,935.0,936.0,936.0,937.0,937.0,935.0,936.0,936.0,938.0,939.0,937.0,936.0,938.0,939.0,939.0,939.0,934.0,935.0,939.0,939.0,939.0,937.0,936.0,935.0,938.0,938.0,940.0,938.0,936.0,934.0,935.0,936.0,936.0,936.0,933.0,932.0,0.0,
950,952,952,952,948,950,951,954,954,952,952,952,953,956,957,958,959,962,964,966,967,966,965,965,970,973,975,975,974,970,973,974,973,970,970,969,970,970,969,968,969,975,978,976,971,963,962,959,959,957,955,951,951,950,950,949,950,948,948,948,948,951,948,946,946,944,946,948,948,948,942,945,945,943,945,944,939,939,938,932,926,918,915,906,898,901,915,938,963,993,1040,1093,1140,1169,1176.0,1157.0,1103.0,1030.0,967.0,925.0,912.0,919.0,930.0,936.0,940.0,936.0,935.0,935.0,937.0,938.0,939.0,937.0,937.0,937.0,940.0,939.0,941.0,940.0,938.0,936.0,936.0,936.0,935.0,938.0,936.0,938.0,941.0,941.0,940.0,937.0,937.0,935.0,936.0,937.0,939.0,938.0,935.0,936.0,939.0,939.0,942.0,941.0,940.0,935.0,939.0,942.0,941.0,940.0,939.0,939.0,940.0,941.0,942.0,939.0,939.0,939.0,940.0,942.0,944.0,940.0,940.0,936.0,939.0,939.0,943.0,943.0,941.0,941.0,945.0,942.0,941.0,939.0,940.0,939.0,943.0,943.0,944.0,942.0,941.0,941.0,940.0,944.0,941.0,939.0,937.0,937.0,937.0,938.0,0.0,
947,946,948,949,949,946,946,947,950,949,948,947,950,952,955,956,954,954,955,957,958,960,960,961,960,961,965,966,966,967,967,971,970,967,965,964,962,965,967,964,963,962,964,968,969,966,956,952,951,947,946,945,944,939,939,941,943,944,943,945,942,942,943,943,939,940,939,941,943,943,941,939,939,938,939,935,926,919,917,909,901,893,890,894,901,911,924,938,953,966,990,1033,1085,1139,1171.0,1180.0,1152.0,1088.0,1015.0,960.0,927.0,916.0,917.0,926.0,931.0,934.0,935.0,936.0,936.0,939.0,938.0,934.0,934.0,931.0,933.0,932.0,933.0,932.0,932.0,930.0,931.0,933.0,937.0,937.0,935.0,935.0,933.0,932.0,935.0,936.0,936.0,933.0,932.0,934.0,935.0,932.0,930.0,932.0,930.0,932.0,934.0,935.0,935.0,934.0,931.0,933.0,935.0,937.0,934.0,934.0,932.0,937.0,936.0,936.0,937.0,934.0,932.0,935.0,937.0,937.0,935.0,933.0,932.0,932.0,934.0,933.0,932.0,931.0,931.0,933.0,934.0,932.0,933.0,929.0,929.0,931.0,931.0,931.0,929.0,927.0,925.0,926.0,927.0,926.0,926.0,924.0,924.0,923.0,0.0,
949,947,947,948,950,949,949,947,947,949,949,950,948,946,946,948,952,954,954,953,955,959,962,963,961,962,964,968,972,972,972,972,971,971,972,973,969,968,967,968,966,966,967,969,973,978,979,974,968,963,958,959,958,956,952,947,945,947,947,945,947,944,945,945,946,944,942,940,942,943,943,943,940,939,938,940,942,943,939,935,927,919,917,910,902,898,908,931,963,994,1036,1086,1143,1186,1203.0,1183.0,1126.0,1044.0,967.0,924.0,914.0,923.0,930.0,936.0,935.0,939.0,938.0,938.0,938.0,936.0,937.0,938.0,937.0,940.0,941.0,939.0,936.0,936.0,937.0,940.0,938.0,936.0,934.0,937.0,936.0,938.0,934.0,933.0,935.0,936.0,938.0,938.0,938.0,937.0,937.0,937.0,942.0,940.0,938.0,936.0,935.0,938.0,938.0,940.0,939.0,938.0,937.0,938.0,939.0,940.0,941.0,937.0,935.0,938.0,940.0,939.0,940.0,938.0,937.0,939.0,941.0,941.0,939.0,937.0,938.0,940.0,941.0,942.0,940.0,940.0,936.0,941.0,938.0,939.0,939.0,936.0,938.0,937.0,939.0,939.0,936.0,934.0,934.0,936.0,937.0,938.0,937.0,935.0,0.0,
960,958,956,956,954,956,959,957,958,956,958,959,960,962,958,959,957,960,963,967,970,966,969,972,975,975,974,971,973,975,976,979,978,979,979,983,984,983,983,979,977,977,978,979,977,975,974,981,986,986,978,972,966,965,965,963,960,957,954,957,960,961,960,956,956,957,960,959,957,956,955,957,957,958,957,954,951,951,949,944,932,926,922,914,912,922,943,969,999,1036,1082,1134,1177,1206,1223.0,1231.0,1218.0,1167.0,1083.0,1000.0,947.0,928.0,931.0,942.0,950.0,949.0,949.0,951.0,952.0,953.0,953.0,950.0,947.0,950.0,953.0,954.0,950.0,949.0,947.0,949.0,952.0,951.0,951.0,949.0,947.0,950.0,953.0,953.0,950.0,950.0,950.0,952.0,954.0,952.0,951.0,950.0,951.0,952.0,954.0,954.0,955.0,949.0,950.0,954.0,957.0,955.0,953.0,955.0,955.0,956.0,955.0,955.0,954.0,954.0,953.0,955.0,956.0,955.0,955.0,953.0,950.0,953.0,954.0,956.0,954.0,954.0,954.0,951.0,956.0,955.0,957.0,955.0,955.0,957.0,957.0,958.0,955.0,954.0,954.0,954.0,954.0,956.0,955.0,952.0,951.0,952.0,954.0,953.0,0.0,
965,967,968,968,969,965,967,968,968,967,968,965,969,970,974,975,976,978,979,983,985,985,982,986,990,991,990,991,989,988,988,988,988,985,985,981,982,985,987,989,985,982,983,986,991,994,991,986,980,980,976,970,967,966,964,967,966,965,964,962,963,963,964,962,961,961,961,962,963,960,959,959,962,962,964,960,957,953,953,947,943,937,927,917,913,921,942,964,990,1028,1077,1130,1174,1203,1215.0,1201.0,1167.0,1114.0,1054.0,999.0,956.0,936.0,928.0,929.0,939.0,946.0,949.0,948.0,952.0,951.0,953.0,951.0,951.0,952.0,953.0,954.0,955.0,954.0,951.0,952.0,954.0,955.0,953.0,955.0,954.0,953.0,955.0,957.0,954.0,950.0,950.0,949.0,952.0,955.0,954.0,954.0,953.0,950.0,952.0,954.0,956.0,953.0,952.0,950.0,953.0,954.0,955.0,953.0,953.0,952.0,952.0,954.0,953.0,953.0,951.0,949.0,953.0,955.0,955.0,953.0,952.0,953.0,955.0,956.0,955.0,955.0,952.0,952.0,954.0,956.0,954.0,953.0,950.0,951.0,956.0,954.0,955.0,954.0,953.0,953.0,955.0,954.0,954.0,953.0,951.0,949.0,951.0,952.0,0.0,
964,962,960,963,965,965,963,962,960,963,964,967,965,968,968,973,975,976,977,976,976,977,981,983,980,979,978,981,983,982,982,983,981,980,982,984,980,976,973,977,982,984,980,973,967,967,966,965,961,960,959,957,958,960,956,957,953,955,957,957,956,952,953,954,956,955,955,954,954,956,956,956,958,956,952,955,957,955,953,946,938,934,933,927,916,915,924,949,978,1010,1051,1099,1149,1187,1209.0,1201.0,1150.0,1072.0,996.0,950.0,933.0,929.0,936.0,944.0,946.0,949.0,948.0,951.0,949.0,948.0,949.0,949.0,947.0,949.0,950.0,947.0,946.0,945.0,948.0,950.0,947.0,946.0,945.0,947.0,949.0,949.0,947.0,946.0,944.0,945.0,948.0,947.0,945.0,946.0,947.0,947.0,948.0,949.0,948.0,950.0,947.0,948.0,949.0,951.0,949.0,945.0,949.0,947.0,949.0,949.0,948.0,949.0,947.0,949.0,950.0,950.0,948.0,947.0,945.0,949.0,949.0,949.0,949.0,949.0,944.0,950.0,950.0,951.0,951.0,947.0,948.0,950.0,952.0,950.0,948.0,949.0,947.0,947.0,945.0,948.0,944.0,944.0,942.0,943.0,943.0,944.0,943.0,940.0,0.0,
964,964,962,961,963,965,965,965,963,961,964,965,967,965,965,964,967,973,975,975,975,974,977,982,983,983,983,983,983,986,986,986,985,983,983,983,984,985,984,978,979,984,987,991,988,980,978,976,975,973,969,963,965,966,966,965,961,959,961,963,962,963,960,959,959,959,962,959,959,956,957,960,959,958,959,957,957,956,956,951,939,935,930,927,921,917,923,946,977,1011,1054,1109,1163,1204,1226.0,1219.0,1171.0,1083.0,1000.0,944.0,929.0,937.0,951.0,954.0,953.0,951.0,952.0,952.0,952.0,954.0,954.0,951.0,952.0,952.0,954.0,952.0,950.0,946.0,949.0,949.0,950.0,950.0,949.0,946.0,949.0,950.0,950.0,949.0,950.0,947.0,948.0,949.0,952.0,951.0,948.0,949.0,950.0,951.0,952.0,951.0,950.0,948.0,950.0,952.0,950.0,949.0,949.0,950.0,951.0,951.0,953.0,950.0,948.0,947.0,948.0,952.0,954.0,953.0,951.0,950.0,954.0,955.0,958.0,957.0,953.0,954.0,953.0,956.0,955.0,957.0,955.0,951.0,953.0,955.0,955.0,955.0,953.0,950.0,954.0,953.0,954.0,953.0,952.0,951.0,951.0,953.0,952.0,954.0,0.0,
963,967,965,964,965,963,965,966,966,966,964,961,964,967,967,968,968,968,971,978,977,976,977,977,978,980,983,984,983,985,987,989,988,986,985,980,981,982,985,985,981,979,980,983,989,990,985,977,976,976,976,973,971,965,966,966,965,963,961,960,963,965,966,965,960,960,962,961,961,962,961,957,959,961,960,959,956,954,953,954,951,941,935,930,926,916,915,926,948,975,1014,1059,1117,1170,1199.0,1199.0,1165.0,1097.0,1013.0,952.0,929.0,930.0,941.0,949.0,953.0,951.0,952.0,951.0,953.0,955.0,954.0,956.0,953.0,951.0,952.0,951.0,953.0,950.0,950.0,947.0,949.0,950.0,953.0,951.0,952.0,948.0,948.0,952.0,954.0,952.0,950.0,949.0,949.0,951.0,950.0,951.0,951.0,950.0,951.0,952.0,951.0,949.0,949.0,947.0,950.0,952.0,953.0,952.0,949.0,948.0,947.0,948.0,953.0,952.0,952.0,950.0,950.0,955.0,956.0,955.0,953.0,953.0,954.0,955.0,955.0,955.0,954.0,949.0,953.0,952.0,955.0,954.0,950.0,950.0,952.0,953.0,955.0,955.0,953.0,950.0,952.0,952.0,952.0,951.0,950.0,948.0,948.0,950.0,0.0,
957,959,962,964,964,961,965,963,962,963,965,966,961,960,961,962,964,965,964,967,969,972,973,974,971,970,974,980,982,987,984,982,982,983,985,984,979,975,978,981,979,975,976,980,982,982,978,973,968,964,963,959,959,959,957,957,958,958,959,958,956,954,956,957,958,958,958,957,956,958,958,957,956,954,954,955,955,952,951,948,943,938,936,929,920,911,919,937,970,1001,1046,1099,1156,1196,1208.0,1189.0,1126.0,1046.0,978.0,942.0,932.0,934.0,941.0,944.0,947.0,949.0,950.0,950.0,948.0,949.0,949.0,950.0,949.0,949.0,949.0,947.0,949.0,951.0,949.0,952.0,948.0,943.0,945.0,948.0,950.0,948.0,948.0,946.0,949.0,951.0,950.0,950.0,950.0,948.0,948.0,949.0,948.0,950.0,948.0,948.0,949.0,950.0,950.0,950.0,950.0,946.0,947.0,947.0,947.0,948.0,946.0,944.0,947.0,948.0,948.0,950.0,948.0,946.0,947.0,947.0,951.0,948.0,948.0,946.0,946.0,949.0,951.0,950.0,949.0,949.0,953.0,950.0,950.0,948.0,944.0,943.0,942.0,944.0,944.0,943.0,939.0,937.0,938.0,936.0,938.0,937.0,935.0,935.0,0.0,
962,966,967,967,968,967,967,967,968,969,968,967,966,966,968,971,972,972,972,977,980,981,981,982,981,982,985,985,988,991,987,989,989,992,988,985,982,984,985,988,986,984,979,983,989,989,989,981,975,974,973,970,966,964,961,962,963,966,965,961,961,963,962,961,963,960,960,960,961,961,962,961,959,960,961,962,964,960,957,956,953,946,938,932,925,916,918,932,959,992,1027,1076,1135,1187,1219.0,1222.0,1184.0,1107.0,1021.0,960.0,934.0,935.0,946.0,953.0,956.0,956.0,956.0,955.0,954.0,955.0,955.0,954.0,953.0,954.0,952.0,951.0,953.0,954.0,953.0,954.0,951.0,950.0,951.0,953.0,954.0,953.0,951.0,951.0,954.0,955.0,955.0,954.0,952.0,955.0,955.0,954.0,956.0,955.0,953.0,956.0,954.0,956.0,955.0,956.0,954.0,953.0,957.0,958.0,955.0,954.0,953.0,954.0,956.0,958.0,956.0,956.0,950.0,954.0,956.0,959.0,956.0,956.0,954.0,955.0,955.0,958.0,956.0,955.0,953.0,954.0,955.0,956.0,955.0,953.0,952.0,954.0,953.0,954.0,951.0,952.0,949.0,950.0,952.0,953.0,950.0,949.0,947.0,950.0,0.0,
967,964,962,963,965,965,966,962,966,968,968,968,965,964,966,967,972,971,973,976,979,981,981,980,981,982,983,988,990,992,988,985,987,985,986,984,984,985,985,983,981,982,983,985,991,992,987,981,975,972,970,967,968,965,963,960,962,961,963,963,961,959,959,963,962,960,959,958,958,960,962,958,960,957,957,957,958,954,946,937,932,929,922,912,908,917,936,960,982,1000,1030,1069,1124,1174,1204.0,1218.0,1208.0,1157.0,1082.0,1011.0,962.0,935.0,930.0,936.0,943.0,952.0,955.0,953.0,950.0,950.0,953.0,951.0,952.0,952.0,947.0,945.0,947.0,948.0,949.0,950.0,949.0,948.0,948.0,949.0,951.0,951.0,949.0,947.0,949.0,951.0,953.0,950.0,949.0,948.0,950.0,949.0,953.0,954.0,953.0,950.0,950.0,952.0,952.0,953.0,950.0,950.0,952.0,952.0,954.0,953.0,949.0,948.0,950.0,951.0,952.0,951.0,952.0,949.0,949.0,951.0,952.0,951.0,951.0,950.0,951.0,951.0,952.0,953.0,952.0,950.0,952.0,954.0,954.0,953.0,952.0,948.0,950.0,953.0,953.0,954.0,950.0,947.0,949.0,950.0,951.0,950.0,947.0,947.0,0.0,
961,959,959,958,959,959,958,957,957,955,959,960,964,963,962,961,964,969,974,973,974,971,971,975,978,981,982,979,984,983,983,982,977,976,977,977,978,977,977,976,975,973,975,975,975,979,977,974,970,967,961,957,955,957,956,955,956,955,956,957,957,954,952,951,953,951,952,952,949,947,948,951,950,951,948,947,948,944,940,932,926,918,908,902,905,915,935,952,972,999,1036,1078,1122,1154,1184.0,1198.0,1189.0,1145.0,1080.0,1010.0,960.0,932.0,920.0,922.0,934.0,938.0,941.0,941.0,940.0,940.0,940.0,939.0,941.0,942.0,944.0,942.0,938.0,936.0,939.0,940.0,942.0,943.0,940.0,939.0,938.0,939.0,942.0,939.0,942.0,940.0,941.0,942.0,942.0,944.0,941.0,938.0,941.0,941.0,941.0,941.0,943.0,936.0,938.0,937.0,940.0,941.0,938.0,938.0,939.0,942.0,943.0,944.0,941.0,938.0,938.0,940.0,941.0,940.0,938.0,936.0,938.0,938.0,941.0,941.0,940.0,937.0,939.0,942.0,943.0,942.0,940.0,938.0,940.0,942.0,941.0,942.0,940.0,937.0,938.0,937.0,939.0,936.0,934.0,931.0,935.0,936.0,937.0,937.0,0.0,
947,949,951,951,953,949,950,949,951,957,953,952,951,955,959,962,962,962,959,963,966,967,968,970,966,970,971,973,975,973,971,971,971,970,970,966,968,969,971,971,967,964,965,966,972,974,973,967,959,956,956,954,952,951,944,946,945,948,948,947,943,945,947,944,946,942,942,943,945,946,944,943,940,943,942,944,941,936,930,924,921,919,908,897,897,911,937,964,989,1019,1052,1097,1144,1180,1205.0,1207.0,1174.0,1107.0,1026.0,966.0,930.0,914.0,916.0,926.0,936.0,938.0,937.0,936.0,932.0,934.0,937.0,940.0,936.0,937.0,935.0,936.0,936.0,938.0,937.0,934.0,934.0,936.0,936.0,938.0,935.0,936.0,935.0,936.0,937.0,937.0,937.0,935.0,932.0,933.0,935.0,938.0,938.0,938.0,936.0,936.0,937.0,938.0,939.0,935.0,934.0,936.0,937.0,937.0,938.0,936.0,935.0,938.0,937.0,941.0,938.0,936.0,934.0,937.0,937.0,939.0,939.0,938.0,934.0,934.0,936.0,938.0,938.0,936.0,935.0,936.0,936.0,938.0,940.0,937.0,934.0,936.0,937.0,938.0,938.0,933.0,930.0,932.0,934.0,935.0,933.0,930.0,926.0,928.0,0.0,
953,949,952,952,954,956,955,950,953,955,957,957,958,957,963,966,970,970,970,968,970,972,976,975,975,974,976,979,978,978,975,974,971,972,974,973,972,971,970,971,971,972,973,977,978,975,968,966,963,956,955,954,954,953,951,950,951,951,953,952,949,948,949,949,948,948,949,946,946,949,948,948,949,946,946,949,946,941,931,923,918,915,906,901,906,923,949,975,1003,1037,1080,1130,1174,1204,1225.0,1239.0,1240.0,1212.0,1148.0,1063.0,984.0,936.0,922.0,927.0,936.0,945.0,946.0,945.0,942.0,940.0,940.0,943.0,946.0,944.0,941.0,940.0,938.0,940.0,941.0,940.0,940.0,939.0,939.0,941.0,941.0,941.0,938.0,937.0,939.0,941.0,942.0,941.0,940.0,937.0,940.0,940.0,942.0,942.0,938.0,939.0,939.0,942.0,943.0,942.0,940.0,938.0,940.0,940.0,942.0,944.0,941.0,941.0,941.0,943.0,946.0,945.0,942.0,942.0,941.0,943.0,943.0,942.0,941.0,940.0,943.0,944.0,942.0,944.0,942.0,941.0,942.0,943.0,945.0,947.0,942.0,940.0,943.0,945.0,947.0,945.0,943.0,942.0,945.0,944.0,943.0,943.0,942.0,941.0,0.0,
952,952,953,955,956,952,950,953,957,957,956,956,952,955,958,959,961,964,963,967,969,970,972,970,969,974,978,978,979,978,976,976,977,978,977,972,971,969,971,978,978,971,968,972,977,982,983,979,971,968,967,965,963,959,952,951,954,954,951,952,951,949,951,953,952,947,949,948,949,952,951,951,949,947,950,949,950,944,935,928,924,923,918,906,896,900,919,941,971,998,1036,1092,1150,1189,1208.0,1207.0,1175.0,1110.0,1035.0,971.0,932.0,915.0,918.0,930.0,940.0,943.0,943.0,940.0,938.0,938.0,940.0,943.0,942.0,939.0,938.0,938.0,938.0,941.0,941.0,941.0,938.0,940.0,942.0,943.0,942.0,940.0,939.0,940.0,941.0,944.0,942.0,943.0,940.0,943.0,941.0,945.0,945.0,944.0,941.0,941.0,943.0,943.0,945.0,942.0,939.0,942.0,944.0,945.0,946.0,946.0,943.0,944.0,945.0,946.0,946.0,943.0,943.0,943.0,943.0,944.0,944.0,941.0,939.0,938.0,942.0,945.0,948.0,946.0,942.0,942.0,945.0,944.0,945.0,944.0,941.0,942.0,943.0,944.0,945.0,940.0,941.0,942.0,941.0,945.0,941.0,941.0,938.0,938.0,0.0,
951,951,948,946,946,948,948,952,949,947,947,946,948,948,946,946,948,952,957,959,960,959,958,960,962,963,964,965,964,968,970,973,971,968,969,969,971,971,966,966,967,969,968,966,961,963,968,971,970,966,957,952,948,946,947,947,946,941,942,941,944,945,943,940,940,942,943,943,942,940,942,942,944,944,941,937,935,936,932,923,919,912,904,894,901,916,939,958,984,1015,1060,1111,1155,1183,1202.0,1198.0,1161.0,1089.0,1014.0,956.0,924.0,913.0,918.0,928.0,933.0,931.0,932.0,932.0,935.0,936.0,936.0,933.0,932.0,934.0,934.0,934.0,934.0,934.0,933.0,934.0,933.0,935.0,932.0,928.0,930.0,931.0,935.0,933.0,935.0,933.0,933.0,933.0,933.0,936.0,932.0,929.0,931.0,932.0,933.0,932.0,931.0,931.0,931.0,931.0,934.0,934.0,931.0,927.0,929.0,931.0,933.0,936.0,934.0,932.0,931.0,933.0,934.0,934.0,933.0,930.0,931.0,934.0,937.0,937.0,934.0,928.0,931.0,930.0,932.0,931.0,930.0,930.0,928.0,928.0,929.0,928.0,926.0,924.0,925.0,924.0,927.0,926.0,922.0,923.0,920.0,921.0,922.0,921.0,0.0,
951,948,947,946,946,948,950,950,948,946,945,947,948,950,947,947,948,950,953,954,956,958,959,962,962,966,965,962,964,967,972,973,973,970,973,972,975,973,969,966,968,970,970,968,966,962,968,974,974,970,962,957,954,953,951,950,948,943,945,947,949,951,949,947,947,949,950,949,948,945,948,949,949,949,946,943,945,947,949,947,942,933,925,923,923,914,906,911,934,965,1000,1051,1108,1164,1202.0,1211.0,1173.0,1092.0,1001.0,938.0,918.0,923.0,935.0,944.0,943.0,942.0,941.0,940.0,944.0,943.0,943.0,939.0,942.0,943.0,940.0,943.0,941.0,941.0,941.0,942.0,944.0,943.0,942.0,941.0,943.0,942.0,944.0,945.0,943.0,940.0,942.0,943.0,944.0,943.0,943.0,942.0,941.0,945.0,945.0,945.0,943.0,941.0,941.0,944.0,944.0,944.0,943.0,941.0,938.0,941.0,943.0,943.0,942.0,940.0,940.0,940.0,944.0,945.0,944.0,942.0,941.0,941.0,946.0,945.0,945.0,943.0,945.0,946.0,947.0,944.0,944.0,942.0,940.0,938.0,941.0,941.0,940.0,937.0,936.0,936.0,938.0,939.0,936.0,933.0,933.0,934.0,937.0,936.0,0.0,
963,962,961,960,961,959,963,964,962,961,961,963,963,965,963,962,962,965,968,973,974,973,974,977,979,979,980,980,984,986,988,988,986,985,981,982,985,981,982,982,982,980,982,981,980,983,989,992,989,982,976,974,969,968,966,964,962,958,961,960,963,963,961,960,957,960,962,959,957,954,956,957,957,957,957,956,954,954,953,946,935,926,924,917,915,924,946,977,1005,1037,1080,1135,1185,1219,1241.0,1249.0,1226.0,1157.0,1059.0,977.0,935.0,929.0,945.0,952.0,953.0,952.0,949.0,950.0,954.0,954.0,951.0,950.0,949.0,950.0,950.0,951.0,949.0,948.0,949.0,949.0,953.0,951.0,950.0,949.0,949.0,951.0,952.0,953.0,950.0,948.0,949.0,952.0,952.0,953.0,951.0,951.0,948.0,952.0,951.0,952.0,952.0,952.0,951.0,952.0,954.0,952.0,954.0,951.0,950.0,952.0,954.0,951.0,950.0,949.0,949.0,949.0,952.0,950.0,951.0,951.0,951.0,950.0,954.0,953.0,952.0,950.0,950.0,951.0,954.0,951.0,951.0,947.0,949.0,950.0,952.0,951.0,950.0,948.0,947.0,949.0,950.0,949.0,949.0,947.0,948.0,948.0,952.0,951.0,0.0,
963,959,962,961,963,964,965,962,962,962,965,965,966,964,968,970,975,978,978,976,976,977,982,985,982,982,983,984,987,990,986,984,984,981,983,984,981,982,980,975,976,983,986,989,982,977,973,972,968,964,960,961,960,963,962,961,958,958,962,963,964,960,957,958,959,958,962,960,956,957,959,959,959,958,952,946,940,936,932,927,916,906,907,917,932,949,958,967,981,1000,1027,1064,1114,1163,1198.0,1205.0,1172.0,1105.0,1024.0,959.0,933.0,936.0,946.0,951.0,950.0,952.0,952.0,957.0,954.0,952.0,952.0,953.0,952.0,953.0,951.0,953.0,952.0,950.0,952.0,955.0,953.0,952.0,952.0,951.0,951.0,954.0,952.0,950.0,948.0,950.0,952.0,953.0,951.0,952.0,950.0,949.0,953.0,955.0,954.0,953.0,950.0,951.0,954.0,955.0,955.0,954.0,951.0,950.0,951.0,954.0,951.0,949.0,950.0,948.0,951.0,954.0,951.0,951.0,953.0,949.0,949.0,952.0,951.0,951.0,951.0,951.0,951.0,953.0,951.0,950.0,947.0,949.0,950.0,950.0,951.0,950.0,948.0,948.0,946.0,950.0,949.0,947.0,947.0,944.0,946.0,949.0,947.0,946.0,0.0,
953,952,951,952,954,956,956,954,953,952,953,958,959,959,960,961,965,969,968,966,964,967,971,973,973,975,975,974,976,979,979,977,974,972,971,975,972,968,970,970,975,979,975,969,964,957,955,960,957,956,953,951,952,953,951,951,950,949,953,954,955,954,954,952,951,952,949,950,945,946,949,951,950,949,948,947,948,950,946,941,931,927,926,917,912,911,924,948,976,1010,1052,1103,1150,1187,1204.0,1196.0,1152.0,1079.0,1008.0,956.0,931.0,924.0,926.0,932.0,935.0,936.0,934.0,940.0,941.0,942.0,943.0,940.0,945.0,945.0,946.0,943.0,939.0,938.0,942.0,942.0,939.0,939.0,937.0,938.0,939.0,943.0,943.0,942.0,943.0,940.0,941.0,943.0,942.0,939.0,939.0,940.0,941.0,943.0,941.0,942.0,941.0,939.0,941.0,943.0,941.0,939.0,939.0,938.0,942.0,944.0,944.0,943.0,943.0,943.0,944.0,946.0,945.0,943.0,940.0,939.0,940.0,942.0,942.0,943.0,941.0,941.0,942.0,943.0,944.0,943.0,941.0,939.0,942.0,941.0,943.0,941.0,939.0,939.0,940.0,942.0,942.0,938.0,935.0,935.0,937.0,937.0,935.0,933.0,0.0,
956,959,961,958,962,963,960,960,960,962,965,967,968,969,971,975,976,977,976,975,975,977,981,980,982,980,981,985,989,988,983,981,983,983,985,982,982,979,976,978,980,983,982,984,982,977,973,969,966,961,960,964,962,960,957,956,959,960,962,962,958,958,956,958,961,960,958,957,955,959,959,960,958,957,957,956,958,955,949,940,933,931,929,921,912,914,926,954,986,1021,1061,1115,1168,1210,1231.0,1222.0,1178.0,1104.0,1019.0,961.0,935.0,929.0,933.0,940.0,947.0,952.0,954.0,952.0,950.0,950.0,947.0,948.0,952.0,952.0,950.0,948.0,949.0,950.0,950.0,950.0,948.0,948.0,947.0,950.0,953.0,952.0,951.0,951.0,952.0,952.0,954.0,953.0,952.0,950.0,950.0,953.0,955.0,955.0,951.0,953.0,951.0,953.0,954.0,953.0,954.0,952.0,951.0,954.0,953.0,956.0,953.0,950.0,953.0,955.0,956.0,956.0,955.0,955.0,955.0,956.0,956.0,954.0,954.0,953.0,953.0,954.0,955.0,955.0,953.0,954.0,951.0,954.0,955.0,955.0,954.0,952.0,952.0,952.0,954.0,955.0,951.0,950.0,949.0,951.0,953.0,951.0,949.0,949.0,0.0,
964,966,969,969,970,966,967,966,970,969,970,968,971,968,968,967,967,970,970,971,974,975,981,981,983,983,982,984,988,988,988,989,992,992,993,990,989,985,987,987,987,988,982,984,987,993,994,991,983,978,978,975,972,970,967,966,967,967,969,966,964,963,965,964,963,961,961,960,960,963,962,963,960,961,962,962,962,960,956,953,945,939,936,932,923,915,920,940,970,1002,1039,1090,1153,1202,1224.0,1219.0,1173.0,1088.0,1000.0,948.0,934.0,940.0,949.0,954.0,958.0,957.0,954.0,957.0,956.0,955.0,955.0,954.0,957.0,954.0,951.0,950.0,951.0,953.0,956.0,953.0,951.0,950.0,952.0,954.0,954.0,952.0,952.0,951.0,955.0,952.0,953.0,954.0,952.0,954.0,956.0,957.0,958.0,953.0,954.0,953.0,956.0,957.0,957.0,954.0,954.0,954.0,956.0,956.0,958.0,954.0,954.0,955.0,957.0,957.0,958.0,957.0,955.0,953.0,957.0,959.0,959.0,957.0,954.0,954.0,956.0,958.0,956.0,955.0,956.0,953.0,955.0,958.0,956.0,957.0,955.0,954.0,957.0,958.0,957.0,956.0,954.0,953.0,954.0,957.0,955.0,955.0,953.0,950.0,0.0,
966,964,966,962,965,967,969,965,965,965,965,968,970,972,974,974,979,979,981,981,978,976,978,980,980,979,978,980,982,988,989,987,985,984,984,984,984,982,981,980,983,981,981,984,987,990,987,981,975,973,969,967,966,966,962,962,957,955,958,959,959,958,959,957,957,959,958,956,955,953,957,957,958,959,956,957,958,955,953,946,939,932,929,922,912,908,918,942,967,998,1039,1093,1142,1179,1203.0,1197.0,1152.0,1082.0,1015.0,960.0,932.0,927.0,931.0,936.0,941.0,945.0,948.0,948.0,948.0,951.0,948.0,949.0,950.0,951.0,950.0,946.0,945.0,944.0,948.0,949.0,949.0,951.0,946.0,948.0,949.0,950.0,951.0,948.0,947.0,946.0,948.0,949.0,950.0,950.0,949.0,948.0,949.0,950.0,948.0,950.0,946.0,948.0,949.0,953.0,952.0,950.0,947.0,946.0,946.0,947.0,948.0,946.0,949.0,949.0,950.0,949.0,946.0,950.0,946.0,947.0,948.0,948.0,949.0,949.0,948.0,946.0,947.0,951.0,951.0,950.0,948.0,950.0,950.0,953.0,952.0,949.0,947.0,947.0,947.0,948.0,948.0,948.0,945.0,945.0,945.0,947.0,947.0,944.0,0.0,
955,955,955,956,957,957,960,958,956,955,954,958,958,960,959,957,958,959,961,962,961,963,965,966,968,972,971,968,973,979,981,980,978,978,977,977,979,976,974,970,976,978,977,974,977,976,978,975,973,970,966,960,955,955,957,958,957,956,954,956,959,958,955,953,949,951,954,955,950,949,950,953,953,951,952,950,948,949,951,951,948,939,930,929,923,915,913,923,951,989,1028,1082,1139,1186,1209.0,1196.0,1143.0,1061.0,986.0,940.0,926.0,929.0,936.0,944.0,946.0,946.0,944.0,945.0,947.0,948.0,948.0,945.0,943.0,944.0,947.0,947.0,945.0,946.0,946.0,946.0,948.0,947.0,945.0,944.0,944.0,945.0,946.0,943.0,944.0,942.0,941.0,945.0,945.0,948.0,946.0,946.0,945.0,947.0,947.0,946.0,945.0,943.0,943.0,945.0,947.0,946.0,947.0,946.0,944.0,946.0,946.0,946.0,945.0,944.0,945.0,945.0,947.0,948.0,946.0,944.0,946.0,947.0,947.0,946.0,945.0,945.0,944.0,949.0,949.0,950.0,946.0,943.0,942.0,941.0,944.0,943.0,941.0,939.0,937.0,937.0,937.0,939.0,937.0,936.0,935.0,935.0,937.0,937.0,0.0,
966,967,967,965,964,964,966,966,967,963,964,962,964,967,969,965,966,966,968,969,970,969,972,972,976,981,983,981,982,982,985,990,991,990,989,987,986,990,987,986,980,982,985,987,984,984,988,991,993,989,983,977,975,971,967,969,967,966,962,961,965,965,965,965,963,961,962,963,965,963,962,957,959,964,964,962,960,959,961,961,958,947,936,931,927,920,919,932,962,998,1041,1096,1155,1203,1230.0,1230.0,1187.0,1107.0,1013.0,947.0,929.0,938.0,955.0,959.0,959.0,954.0,952.0,952.0,955.0,954.0,953.0,952.0,952.0,951.0,953.0,953.0,953.0,949.0,949.0,950.0,952.0,953.0,954.0,954.0,952.0,950.0,953.0,952.0,951.0,951.0,950.0,950.0,952.0,952.0,954.0,954.0,951.0,952.0,951.0,954.0,955.0,954.0,953.0,952.0,953.0,956.0,954.0,953.0,955.0,953.0,954.0,956.0,956.0,955.0,955.0,953.0,954.0,955.0,955.0,956.0,954.0,952.0,953.0,954.0,956.0,956.0,955.0,954.0,955.0,956.0,957.0,956.0,952.0,953.0,954.0,954.0,955.0,953.0,953.0,951.0,952.0,953.0,954.0,952.0,950.0,949.0,954.0,953.0,0.0,
964,961,964,966,967,965,965,965,964,967,965,964,963,962,964,967,968,969,971,971,974,978,980,977,980,979,983,986,987,988,988,989,991,990,989,988,986,983,984,983,984,986,983,979,981,986,991,992,983,977,974,973,969,966,964,962,962,961,963,962,961,959,959,962,962,962,959,956,957,958,957,956,956,954,957,959,959,958,956,953,948,941,935,929,919,911,915,937,967,998,1034,1086,1144,1193,1218.0,1213.0,1165.0,1076.0,991.0,940.0,930.0,938.0,949.0,950.0,953.0,954.0,954.0,954.0,951.0,950.0,949.0,951.0,951.0,952.0,950.0,949.0,951.0,951.0,951.0,951.0,949.0,948.0,950.0,950.0,952.0,952.0,951.0,950.0,953.0,953.0,954.0,955.0,950.0,949.0,953.0,952.0,951.0,952.0,952.0,951.0,953.0,955.0,952.0,952.0,952.0,950.0,953.0,955.0,956.0,952.0,953.0,950.0,951.0,954.0,955.0,954.0,954.0,951.0,954.0,955.0,958.0,953.0,953.0,953.0,957.0,956.0,957.0,958.0,954.0,953.0,953.0,954.0,956.0,955.0,955.0,953.0,955.0,954.0,957.0,954.0,953.0,950.0,954.0,954.0,954.0,954.0,950.0,951.0,0.0,
965,961,958,961,964,965,964,962,961,963,964,964,964,965,963,967,969,975,974,973,972,975,975,976,975,978,975,978,980,982,984,985,983,984,983,983,983,980,979,979,981,981,978,974,976,981,985,982,975,969,966,962,962,960,958,956,956,957,961,958,959,955,953,953,955,956,954,954,953,954,957,957,953,952,950,951,955,954,945,937,932,928,921,912,912,924,944,970,995,1033,1075,1123,1158,1187,1209.0,1224.0,1216.0,1179.0,1111.0,1031.0,973.0,943.0,929.0,933.0,937.0,945.0,948.0,948.0,947.0,947.0,943.0,947.0,948.0,950.0,949.0,949.0,946.0,946.0,946.0,944.0,946.0,945.0,945.0,946.0,946.0,943.0,942.0,943.0,944.0,946.0,947.0,949.0,950.0,945.0,941.0,945.0,945.0,946.0,945.0,945.0,944.0,945.0,947.0,949.0,948.0,946.0,947.0,947.0,947.0,946.0,946.0,943.0,942.0,942.0,942.0,945.0,946.0,942.0,944.0,943.0,946.0,947.0,947.0,944.0,945.0,946.0,949.0,948.0,945.0,943.0,943.0,944.0,946.0,946.0,943.0,942.0,941.0,942.0,944.0,942.0,941.0,939.0,935.0,937.0,941.0,941.0,941.0,938.0,0.0,
951,956,956,958,957,955,952,954,954,953,954,954,954,957,957,961,962,962,964,966,967,968,969,971,970,972,976,979,978,977,976,975,975,974,972,975,970,970,970,970,973,975,975,975,972,969,967,958,953,952,952,952,952,949,947,949,951,952,951,950,948,948,950,951,951,950,949,950,950,951,950,947,947,949,951,951,950,948,941,936,932,928,924,916,906,912,927,951,982,1011,1053,1113,1163,1198,1212.0,1194.0,1138.0,1064.0,995.0,950.0,928.0,922.0,918.0,928.0,935.0,940.0,941.0,939.0,937.0,941.0,943.0,944.0,942.0,942.0,939.0,939.0,942.0,944.0,941.0,940.0,939.0,939.0,941.0,941.0,942.0,939.0,938.0,940.0,944.0,944.0,945.0,941.0,941.0,940.0,942.0,945.0,942.0,940.0,939.0,941.0,943.0,942.0,942.0,942.0,939.0,943.0,945.0,940.0,942.0,943.0,941.0,944.0,943.0,945.0,942.0,941.0,941.0,942.0,943.0,943.0,942.0,942.0,943.0,944.0,945.0,947.0,947.0,945.0,943.0,943.0,944.0,945.0,946.0,942.0,941.0,940.0,943.0,943.0,943.0,942.0,938.0,940.0,938.0,942.0,939.0,936.0,934.0,934.0,0.0,
959,956,956,960,962,960,959,957,959,960,961,963,964,963,965,970,972,972,974,971,970,974,976,978,978,979,980,981,980,982,979,973,978,977,976,976,974,973,977,983,986,979,975,969,966,965,963,960,957,956,954,955,957,957,955,954,954,956,956,957,956,951,953,956,958,956,952,952,954,954,956,955,954,951,953,953,955,952,946,936,929,925,922,914,907,909,926,952,982,1015,1052,1105,1163,1204,1221.0,1209.0,1160.0,1080.0,997.0,944.0,930.0,933.0,939.0,942.0,947.0,947.0,947.0,947.0,947.0,944.0,946.0,945.0,947.0,946.0,945.0,943.0,944.0,946.0,947.0,946.0,944.0,943.0,945.0,944.0,946.0,946.0,946.0,943.0,945.0,947.0,948.0,948.0,947.0,945.0,945.0,944.0,949.0,947.0,947.0,944.0,945.0,946.0,949.0,949.0,948.0,945.0,945.0,948.0,950.0,950.0,947.0,945.0,946.0,948.0,948.0,948.0,947.0,946.0,949.0,949.0,949.0,951.0,949.0,945.0,946.0,948.0,949.0,949.0,948.0,944.0,947.0,949.0,949.0,950.0,949.0,947.0,946.0,949.0,952.0,952.0,949.0,945.0,944.0,948.0,951.0,949.0,947.0,946.0,0.0,
960,959,958,959,959,962,961,959,957,957,959,960,961,960,957,964,967,973,975,974,971,974,977,979,977,979,980,983,983,984,983,981,978,977,977,980,979,976,974,975,979,986,986,980,973,970,969,968,964,962,957,960,962,961,960,955,954,956,957,959,956,957,954,954,956,957,954,955,952,953,953,956,954,953,952,954,953,956,952,947,936,931,929,923,911,910,919,942,970,1000,1041,1091,1143,1186,1202.0,1188.0,1137.0,1058.0,984.0,936.0,924.0,932.0,942.0,946.0,944.0,943.0,944.0,948.0,951.0,950.0,947.0,946.0,948.0,949.0,949.0,947.0,947.0,947.0,948.0,949.0,949.0,946.0,944.0,945.0,947.0,948.0,947.0,946.0,944.0,947.0,947.0,947.0,949.0,948.0,945.0,946.0,949.0,950.0,950.0,949.0,948.0,948.0,950.0,952.0,952.0,949.0,947.0,948.0,950.0,950.0,949.0,946.0,947.0,947.0,950.0,951.0,951.0,950.0,947.0,948.0,949.0,952.0,950.0,948.0,947.0,947.0,951.0,953.0,952.0,952.0,949.0,945.0,950.0,953.0,953.0,951.0,950.0,950.0,951.0,951.0,953.0,949.0,946.0,950.0,950.0,951.0,949.0,949.0,0.0,
